4.000000 480.000000
4.019482 491.000000
4.038965 499.000000
4.058447 505.000000
4.077929 467.000000
4.097412 490.000000
4.116894 463.000000
4.136377 476.000000
4.155859 456.000000
4.175341 459.000000
4.194824 473.000000
4.214306 421.000000
4.233788 404.000000
4.253271 404.000000
4.272753 429.000000
4.292236 421.000000
4.311718 372.000000
4.331200 383.000000
4.350683 380.000000
4.370165 372.000000
4.389647 389.000000
4.409130 392.000000
4.428612 367.000000
4.448094 385.000000
4.467577 325.000000
4.487059 341.000000
4.506542 301.000000
4.526024 331.000000
4.545506 354.000000
4.564989 372.000000
4.584471 363.000000
4.603953 317.000000
4.623436 301.000000
4.642918 350.000000
4.662401 322.000000
4.681883 342.000000
4.701365 326.000000
4.720848 317.000000
4.740330 337.000000
4.759812 341.000000
4.779295 315.000000
4.798777 273.000000
4.818259 295.000000
4.837742 303.000000
4.857224 317.000000
4.876707 312.000000
4.896189 313.000000
4.915671 318.000000
4.935154 286.000000
4.954636 289.000000
4.974118 282.000000
4.993601 279.000000
5.013083 270.000000
5.032566 307.000000
5.052048 269.000000
5.071530 293.000000
5.091013 309.000000
5.110495 284.000000
5.129977 275.000000
5.149460 275.000000
5.168942 263.000000
5.188425 265.000000
5.207907 277.000000
5.227389 271.000000
5.246872 279.000000
5.266354 278.000000
5.285836 258.000000
5.305319 279.000000
5.324801 262.000000
5.344283 255.000000
5.363766 248.000000
5.383248 265.000000
5.402731 256.000000
5.422213 263.000000
5.441695 249.000000
5.461178 254.000000
5.480660 236.000000
5.500142 246.000000
5.519625 226.000000
5.539107 256.000000
5.558590 233.000000
5.578072 262.000000
5.597554 248.000000
5.617037 251.000000
5.636519 254.000000
5.656001 263.000000
5.675484 256.000000
5.694966 264.000000
5.714448 246.000000
5.733931 258.000000
5.753413 241.000000
5.772896 228.000000
5.792378 229.000000
5.811860 250.000000
5.831343 242.000000
5.850825 267.000000
5.870307 202.000000
5.889790 268.000000
5.909272 235.000000
5.928755 221.000000
5.948237 231.000000
5.967719 213.000000
5.987202 232.000000
6.006684 236.000000
6.026166 219.000000
6.045649 220.000000
6.065131 245.000000
6.084613 217.000000
6.104096 213.000000
6.123578 210.000000
6.143061 198.000000
6.162543 230.000000
6.182025 220.000000
6.201508 212.000000
6.220990 211.000000
6.240472 215.000000
6.259955 202.000000
6.279437 193.000000
6.298920 221.000000
6.318402 228.000000
6.337884 225.000000
6.357367 217.000000
6.376849 228.000000
6.396331 216.000000
6.415814 217.000000
6.435296 244.000000
6.454778 211.000000
6.474261 217.000000
6.493743 224.000000
6.513226 205.000000
6.532708 202.000000
6.552190 224.000000
6.571673 203.000000
6.591155 207.000000
6.610637 212.000000
6.630120 204.000000
6.649602 200.000000
6.669085 171.000000
6.688567 180.000000
6.708049 180.000000
6.727532 183.000000
6.747014 190.000000
6.766496 209.000000
6.785979 194.000000
6.805461 190.000000
6.824944 183.000000
6.844426 182.000000
6.863908 183.000000
6.883391 201.000000
6.902873 163.000000
6.922355 185.000000
6.941838 183.000000
6.961320 195.000000
6.980802 170.000000
7.000285 195.000000
7.019767 160.000000
7.039250 175.000000
7.058732 186.000000
7.078214 190.000000
7.097697 176.000000
7.117179 151.000000
7.136661 183.000000
7.156144 174.000000
7.175626 167.000000
7.195109 203.000000
7.214591 191.000000
7.234073 181.000000
7.253556 185.000000
7.273038 193.000000
7.292520 166.000000
7.312003 164.000000
7.331485 205.000000
7.350967 182.000000
7.370450 192.000000
7.389932 200.000000
7.409415 152.000000
7.428897 148.000000
7.448379 171.000000
7.467862 168.000000
7.487344 174.000000
7.506826 173.000000
7.526309 161.000000
7.545791 199.000000
7.565274 147.000000
7.584756 151.000000
7.604238 171.000000
7.623721 170.000000
7.643203 157.000000
7.662685 147.000000
7.682168 159.000000
7.701650 172.000000
7.721132 162.000000
7.740615 153.000000
7.760097 182.000000
7.779580 178.000000
7.799062 173.000000
7.818544 158.000000
7.838027 167.000000
7.857509 172.000000
7.876991 178.000000
7.896474 177.000000
7.915956 162.000000
7.935439 169.000000
7.954921 156.000000
7.974403 181.000000
7.993886 182.000000
8.013368 156.000000
8.032850 138.000000
8.052333 164.000000
8.071815 157.000000
8.091297 149.000000
8.110780 143.000000
8.130262 169.000000
8.149745 166.000000
8.169227 162.000000
8.188709 164.000000
8.208192 147.000000
8.227674 170.000000
8.247156 148.000000
8.266639 155.000000
8.286121 162.000000
8.305604 127.000000
8.325086 149.000000
8.344568 167.000000
8.364051 162.000000
8.383533 172.000000
8.403015 145.000000
8.422498 154.000000
8.441980 151.000000
8.461463 166.000000
8.480945 176.000000
8.500427 146.000000
8.519910 147.000000
8.539392 133.000000
8.558874 134.000000
8.578357 150.000000
8.597839 136.000000
8.617321 150.000000
8.636804 152.000000
8.656286 146.000000
8.675769 160.000000
8.695251 166.000000
8.714733 142.000000
8.734216 130.000000
8.753698 145.000000
8.773180 137.000000
8.792663 171.000000
8.812145 159.000000
8.831628 149.000000
8.851110 156.000000
8.870592 155.000000
8.890075 143.000000
8.909557 151.000000
8.929039 157.000000
8.948522 151.000000
8.968004 156.000000
8.987486 132.000000
9.006969 141.000000
9.026451 160.000000
9.045934 140.000000
9.065416 167.000000
9.084898 133.000000
9.104381 142.000000
9.123863 169.000000
9.143345 141.000000
9.162828 160.000000
9.182310 163.000000
9.201793 135.000000
9.221275 157.000000
9.240757 172.000000
9.260240 171.000000
9.279722 145.000000
9.299204 143.000000
9.318687 154.000000
9.338169 162.000000
9.357651 156.000000
9.377134 128.000000
9.396616 150.000000
9.416099 138.000000
9.435581 139.000000
9.455063 139.000000
9.474546 138.000000
9.494028 163.000000
9.513510 158.000000
9.532993 130.000000
9.552475 129.000000
9.571958 146.000000
9.591440 143.000000
9.610922 145.000000
9.630405 144.000000
9.649887 148.000000
9.669369 123.000000
9.688852 145.000000
9.708334 142.000000
9.727816 148.000000
9.747299 140.000000
9.766781 150.000000
9.786264 136.000000
9.805746 156.000000
9.825228 140.000000
9.844711 122.000000
9.864193 167.000000
9.883675 149.000000
9.903158 150.000000
9.922640 165.000000
9.942123 137.000000
9.961605 132.000000
9.981087 166.000000
10.000570 127.000000
10.020052 133.000000
10.039534 131.000000
10.059017 121.000000
10.078499 157.000000
10.097982 154.000000
10.117464 132.000000
10.136946 150.000000
10.156429 145.000000
10.175911 146.000000
10.195393 145.000000
10.214876 145.000000
10.234358 141.000000
10.253840 161.000000
10.273323 143.000000
10.292805 125.000000
10.312288 130.000000
10.331770 134.000000
10.351252 122.000000
10.370735 123.000000
10.390217 138.000000
10.409699 156.000000
10.429182 118.000000
10.448664 119.000000
10.468147 117.000000
10.487629 138.000000
10.507111 133.000000
10.526594 141.000000
10.546076 133.000000
10.565558 149.000000
10.585041 122.000000
10.604523 114.000000
10.624005 117.000000
10.643488 119.000000
10.662970 149.000000
10.682453 128.000000
10.701935 109.000000
10.721417 124.000000
10.740900 147.000000
10.760382 125.000000
10.779864 134.000000
10.799347 113.000000
10.818829 124.000000
10.838312 100.000000
10.857794 119.000000
10.877276 113.000000
10.896759 129.000000
10.916241 152.000000
10.935723 121.000000
10.955206 124.000000
10.974688 122.000000
10.994170 132.000000
11.013653 134.000000
11.033135 133.000000
11.052618 107.000000
11.072100 118.000000
11.091582 123.000000
11.111065 142.000000
11.130547 128.000000
11.150029 145.000000
11.169512 128.000000
11.188994 133.000000
11.208477 136.000000
11.227959 109.000000
11.247441 128.000000
11.266924 126.000000
11.286406 123.000000
11.305888 129.000000
11.325371 145.000000
11.344853 113.000000
11.364335 125.000000
11.383818 132.000000
11.403300 142.000000
11.422783 122.000000
11.442265 139.000000
11.461747 118.000000
11.481230 119.000000
11.500712 100.000000
11.520194 117.000000
11.539677 124.000000
11.559159 109.000000
11.578642 122.000000
11.598124 100.000000
11.617606 127.000000
11.637089 125.000000
11.656571 116.000000
11.676053 134.000000
11.695536 123.000000
11.715018 130.000000
11.734500 141.000000
11.753983 119.000000
11.773465 112.000000
11.792948 129.000000
11.812430 118.000000
11.831912 141.000000
11.851395 120.000000
11.870877 118.000000
11.890359 117.000000
11.909842 113.000000
11.929324 102.000000
11.948807 117.000000
11.968289 95.000000
11.987771 106.000000
12.007254 113.000000
12.026736 111.000000
12.046218 135.000000
12.065701 114.000000
12.085183 110.000000
12.104666 134.000000
12.124148 122.000000
12.143630 121.000000
12.163113 108.000000
12.182595 116.000000
12.202077 119.000000
12.221560 121.000000
12.241042 117.000000
12.260524 124.000000
12.280007 123.000000
12.299489 112.000000
12.318972 104.000000
12.338454 97.000000
12.357936 116.000000
12.377419 128.000000
12.396901 99.000000
12.416383 107.000000
12.435866 121.000000
12.455348 126.000000
12.474831 113.000000
12.494313 114.000000
12.513795 111.000000
12.533278 112.000000
12.552760 106.000000
12.572242 122.000000
12.591725 125.000000
12.611207 116.000000
12.630689 106.000000
12.650172 93.000000
12.669654 99.000000
12.689137 116.000000
12.708619 111.000000
12.728101 121.000000
12.747584 114.000000
12.767066 120.000000
12.786548 98.000000
12.806031 102.000000
12.825513 111.000000
12.844996 111.000000
12.864478 94.000000
12.883960 106.000000
12.903443 129.000000
12.922925 113.000000
12.942407 133.000000
12.961890 116.000000
12.981372 125.000000
13.000854 115.000000
13.020337 95.000000
13.039819 108.000000
13.059302 98.000000
13.078784 118.000000
13.098266 106.000000
13.117749 105.000000
13.137231 124.000000
13.156713 121.000000
13.176196 122.000000
13.195678 110.000000
13.215161 95.000000
13.234643 123.000000
13.254125 101.000000
13.273608 95.000000
13.293090 96.000000
13.312572 99.000000
13.332055 105.000000
13.351537 96.000000
13.371019 89.000000
13.390502 118.000000
13.409984 91.000000
13.429467 104.000000
13.448949 101.000000
13.468431 105.000000
13.487914 90.000000
13.507396 85.000000
13.526878 124.000000
13.546361 120.000000
13.565843 112.000000
13.585326 96.000000
13.604808 109.000000
13.624290 102.000000
13.643773 106.000000
13.663255 114.000000
13.682737 130.000000
13.702220 101.000000
13.721702 101.000000
13.741185 119.000000
13.760667 107.000000
13.780149 113.000000
13.799632 91.000000
13.819114 110.000000
13.838596 114.000000
13.858079 96.000000
13.877561 85.000000
13.897043 103.000000
13.916526 107.000000
13.936008 102.000000
13.955491 100.000000
13.974973 99.000000
13.994455 94.000000
14.013938 108.000000
14.033420 96.000000
14.052902 95.000000
14.072385 66.000000
14.091867 78.000000
14.111350 104.000000
14.130832 106.000000
14.150314 87.000000
14.169797 82.000000
14.189279 94.000000
14.208761 91.000000
14.228244 117.000000
14.247726 101.000000
14.267208 83.000000
14.286691 104.000000
14.306173 103.000000
14.325656 101.000000
14.345138 92.000000
14.364620 98.000000
14.384103 95.000000
14.403585 95.000000
14.423067 68.000000
14.442550 102.000000
14.462032 89.000000
14.481515 89.000000
14.500997 97.000000
14.520479 89.000000
14.539962 108.000000
14.559444 92.000000
14.578926 103.000000
14.598409 97.000000
14.617891 89.000000
14.637373 96.000000
14.656856 112.000000
14.676338 102.000000
14.695821 97.000000
14.715303 95.000000
14.734785 87.000000
14.754268 107.000000
14.773750 93.000000
14.793232 95.000000
14.812715 89.000000
14.832197 93.000000
14.851680 93.000000
14.871162 85.000000
14.890644 65.000000
14.910127 106.000000
14.929609 89.000000
14.949091 108.000000
14.968574 105.000000
14.988056 95.000000
15.007538 93.000000
15.027021 93.000000
15.046503 90.000000
15.065986 90.000000
15.085468 85.000000
15.104950 84.000000
15.124433 102.000000
15.143915 96.000000
15.163397 93.000000
15.182880 95.000000
15.202362 92.000000
15.221845 96.000000
15.241327 85.000000
15.260809 82.000000
15.280292 90.000000
15.299774 90.000000
15.319256 96.000000
15.338739 99.000000
15.358221 102.000000
15.377704 97.000000
15.397186 87.000000
15.416668 87.000000
15.436151 78.000000
15.455633 90.000000
15.475115 96.000000
15.494598 79.000000
15.514080 91.000000
15.533562 84.000000
15.553045 69.000000
15.572527 86.000000
15.592010 115.000000
15.611492 85.000000
15.630974 84.000000
15.650457 80.000000
15.669939 78.000000
15.689421 91.000000
15.708904 84.000000
15.728386 91.000000
15.747869 78.000000
15.767351 78.000000
15.786833 91.000000
15.806316 78.000000
15.825798 94.000000
15.845280 78.000000
15.864763 81.000000
15.884245 77.000000
15.903727 100.000000
15.923210 79.000000
15.942692 83.000000
15.962175 83.000000
15.981657 79.000000
16.001139 94.000000
16.020622 97.000000
16.040104 82.000000
16.059586 75.000000
16.079069 80.000000
16.098551 82.000000
16.118034 82.000000
16.137516 82.000000
16.156998 94.000000
16.176481 69.000000
16.195963 84.000000
16.215445 92.000000
16.234928 82.000000
16.254410 59.000000
16.273892 76.000000
16.293375 63.000000
16.312857 85.000000
16.332340 69.000000
16.351822 96.000000
16.371304 90.000000
16.390787 79.000000
16.410269 94.000000
16.429751 88.000000
16.449234 84.000000
16.468716 69.000000
16.488199 88.000000
16.507681 63.000000
16.527163 86.000000
16.546646 97.000000
16.566128 89.000000
16.585610 84.000000
16.605093 66.000000
16.624575 91.000000
16.644057 87.000000
16.663540 86.000000
16.683022 90.000000
16.702505 79.000000
16.721987 95.000000
16.741469 84.000000
16.760952 92.000000
16.780434 87.000000
16.799916 102.000000
16.819399 93.000000
16.838881 86.000000
16.858364 79.000000
16.877846 83.000000
16.897328 73.000000
16.916811 91.000000
16.936293 72.000000
16.955775 89.000000
16.975258 90.000000
16.994740 80.000000
17.014222 73.000000
17.033705 91.000000
17.053187 80.000000
17.072670 76.000000
17.092152 81.000000
17.111634 83.000000
17.131117 83.000000
17.150599 80.000000
17.170081 80.000000
17.189564 85.000000
17.209046 92.000000
17.228529 84.000000
17.248011 74.000000
17.267493 83.000000
17.286976 92.000000
17.306458 107.000000
17.325940 79.000000
17.345423 69.000000
17.364905 66.000000
17.384388 70.000000
17.403870 77.000000
17.423352 72.000000
17.442835 91.000000
17.462317 85.000000
17.481799 83.000000
17.501282 65.000000
17.520764 76.000000
17.540246 95.000000
17.559729 60.000000
17.579211 77.000000
17.598694 80.000000
17.618176 67.000000
17.637658 62.000000
17.657141 78.000000
17.676623 66.000000
17.696105 82.000000
17.715588 72.000000
17.735070 88.000000
17.754553 77.000000
17.774035 73.000000
17.793517 67.000000
17.813000 72.000000
17.832482 69.000000
17.851964 74.000000
17.871447 77.000000
17.890929 54.000000
17.910411 80.000000
17.929894 71.000000
17.949376 71.000000
17.968859 88.000000
17.988341 69.000000
18.007823 71.000000
18.027306 71.000000
18.046788 97.000000
18.066270 59.000000
18.085753 57.000000
18.105235 80.000000
18.124718 81.000000
18.144200 81.000000
18.163682 85.000000
18.183165 63.000000
18.202647 65.000000
18.222129 77.000000
18.241612 79.000000
18.261094 76.000000
18.280576 68.000000
18.300059 67.000000
18.319541 74.000000
18.339024 71.000000
18.358506 83.000000
18.377988 64.000000
18.397471 69.000000
18.416953 66.000000
18.436435 69.000000
18.455918 69.000000
18.475400 86.000000
18.494883 76.000000
18.514365 79.000000
18.533847 53.000000
18.553330 75.000000
18.572812 92.000000
18.592294 76.000000
18.611777 69.000000
18.631259 70.000000
18.650741 61.000000
18.670224 80.000000
18.689706 71.000000
18.709189 78.000000
18.728671 63.000000
18.748153 82.000000
18.767636 78.000000
18.787118 87.000000
18.806600 97.000000
18.826083 86.000000
18.845565 85.000000
18.865048 74.000000
18.884530 86.000000
18.904012 75.000000
18.923495 75.000000
18.942977 79.000000
18.962459 73.000000
18.981942 77.000000
19.001424 77.000000
19.020907 64.000000
19.040389 61.000000
19.059871 69.000000
19.079354 79.000000
19.098836 82.000000
19.118318 79.000000
19.137801 67.000000
19.157283 78.000000
19.176765 85.000000
19.196248 81.000000
19.215730 78.000000
19.235213 72.000000
19.254695 75.000000
19.274177 53.000000
19.293660 68.000000
19.313142 78.000000
19.332624 75.000000
19.352107 78.000000
19.371589 87.000000
19.391072 84.000000
19.410554 80.000000
19.430036 86.000000
19.449519 71.000000
19.469001 73.000000
19.488483 74.000000
19.507966 72.000000
19.527448 68.000000
19.546930 80.000000
19.566413 75.000000
19.585895 71.000000
19.605378 63.000000
19.624860 64.000000
19.644342 73.000000
19.663825 72.000000
19.683307 61.000000
19.702789 65.000000
19.722272 76.000000
19.741754 68.000000
19.761237 71.000000
19.780719 65.000000
19.800201 76.000000
19.819684 60.000000
19.839166 89.000000
19.858648 71.000000
19.878131 57.000000
19.897613 77.000000
19.917095 70.000000
19.936578 61.000000
19.956060 54.000000
19.975543 65.000000
19.995025 65.000000
20.014507 65.000000
20.033990 66.000000
20.053472 71.000000
20.072954 66.000000
20.092437 90.000000
20.111919 91.000000
20.131402 79.000000
20.150884 85.000000
20.170366 67.000000
20.189849 97.000000
20.209331 91.000000
20.228813 100.000000
20.248296 75.000000
20.267778 88.000000
20.287260 101.000000
20.306743 79.000000
20.326225 88.000000
20.345708 95.000000
20.365190 101.000000
20.384672 112.000000
20.404155 91.000000
20.423637 97.000000
20.443119 112.000000
20.462602 96.000000
20.482084 87.000000
20.501567 113.000000
20.521049 110.000000
20.540531 110.000000
20.560014 106.000000
20.579496 89.000000
20.598978 124.000000
20.618461 105.000000
20.637943 118.000000
20.657426 123.000000
20.676908 177.000000
20.696390 190.000000
20.715873 300.000000
20.735355 571.000000
20.754837 1023.000000
20.774320 1811.000000
20.793802 3143.000000
20.813284 5276.000000
20.832767 6770.000000
20.852249 5749.000000
20.871732 4112.000000
20.891214 3333.000000
20.910696 1894.000000
20.930179 740.000000
20.949661 314.000000
20.969143 206.000000
20.988626 152.000000
21.008108 139.000000
21.027591 149.000000
21.047073 133.000000
21.066555 111.000000
21.086038 108.000000
21.105520 112.000000
21.125002 87.000000
21.144485 102.000000
21.163967 88.000000
21.183449 78.000000
21.202932 84.000000
21.222414 100.000000
21.241897 79.000000
21.261379 113.000000
21.280861 87.000000
21.300344 75.000000
21.319826 69.000000
21.339308 76.000000
21.358791 81.000000
21.378273 90.000000
21.397756 66.000000
21.417238 80.000000
21.436720 80.000000
21.456203 83.000000
21.475685 71.000000
21.495167 82.000000
21.514650 61.000000
21.534132 83.000000
21.553614 89.000000
21.573097 74.000000
21.592579 72.000000
21.612062 77.000000
21.631544 80.000000
21.651026 72.000000
21.670509 72.000000
21.689991 62.000000
21.709473 81.000000
21.728956 85.000000
21.748438 86.000000
21.767921 75.000000
21.787403 80.000000
21.806885 69.000000
21.826368 82.000000
21.845850 75.000000
21.865332 87.000000
21.884815 69.000000
21.904297 80.000000
21.923779 80.000000
21.943262 76.000000
21.962744 71.000000
21.982227 59.000000
22.001709 74.000000
22.021191 72.000000
22.040674 80.000000
22.060156 73.000000
22.079638 68.000000
22.099121 77.000000
22.118603 83.000000
22.138086 72.000000
22.157568 78.000000
22.177050 84.000000
22.196533 97.000000
22.216015 64.000000
22.235497 69.000000
22.254980 67.000000
22.274462 60.000000
22.293945 72.000000
22.313427 66.000000
22.332909 78.000000
22.352392 65.000000
22.371874 76.000000
22.391356 63.000000
22.410839 67.000000
22.430321 66.000000
22.449803 68.000000
22.469286 73.000000
22.488768 77.000000
22.508251 73.000000
22.527733 70.000000
22.547215 81.000000
22.566698 68.000000
22.586180 93.000000
22.605662 67.000000
22.625145 60.000000
22.644627 74.000000
22.664110 79.000000
22.683592 58.000000
22.703074 61.000000
22.722557 79.000000
22.742039 73.000000
22.761521 72.000000
22.781004 68.000000
22.800486 71.000000
22.819968 74.000000
22.839451 77.000000
22.858933 90.000000
22.878416 79.000000
22.897898 69.000000
22.917380 75.000000
22.936863 56.000000
22.956345 82.000000
22.975827 77.000000
22.995310 66.000000
23.014792 92.000000
23.034275 74.000000
23.053757 65.000000
23.073239 71.000000
23.092722 74.000000
23.112204 86.000000
23.131686 73.000000
23.151169 75.000000
23.170651 77.000000
23.190133 84.000000
23.209616 73.000000
23.229098 73.000000
23.248581 72.000000
23.268063 71.000000
23.287545 65.000000
23.307028 75.000000
23.326510 83.000000
23.345992 76.000000
23.365475 83.000000
23.384957 68.000000
23.404440 84.000000
23.423922 76.000000
23.443404 59.000000
23.462887 67.000000
23.482369 72.000000
23.501851 56.000000
23.521334 77.000000
23.540816 79.000000
23.560298 58.000000
23.579781 53.000000
23.599263 76.000000
23.618746 52.000000
23.638228 81.000000
23.657710 51.000000
23.677193 72.000000
23.696675 79.000000
23.716157 66.000000
23.735640 71.000000
23.755122 68.000000
23.774605 75.000000
23.794087 65.000000
23.813569 82.000000
23.833052 61.000000
23.852534 58.000000
23.872016 58.000000
23.891499 69.000000
23.910981 66.000000
23.930463 74.000000
23.949946 94.000000
23.969428 100.000000
23.988911 124.000000
24.008393 121.000000
24.027875 115.000000
24.047358 89.000000
24.066840 83.000000
24.086322 85.000000
24.105805 69.000000
24.125287 70.000000
24.144770 62.000000
24.164252 74.000000
24.183734 54.000000
24.203217 59.000000
24.222699 81.000000
24.242181 78.000000
24.261664 72.000000
24.281146 74.000000
24.300629 56.000000
24.320111 76.000000
24.339593 65.000000
24.359076 71.000000
24.378558 61.000000
24.398040 75.000000
24.417523 73.000000
24.437005 61.000000
24.456487 61.000000
24.475970 63.000000
24.495452 55.000000
24.514935 70.000000
24.534417 51.000000
24.553899 72.000000
24.573382 72.000000
24.592864 59.000000
24.612346 64.000000
24.631829 69.000000
24.651311 73.000000
24.670794 63.000000
24.690276 71.000000
24.709758 69.000000
24.729241 66.000000
24.748723 76.000000
24.768205 64.000000
24.787688 60.000000
24.807170 62.000000
24.826652 84.000000
24.846135 70.000000
24.865617 60.000000
24.885100 53.000000
24.904582 87.000000
24.924064 76.000000
24.943547 59.000000
24.963029 72.000000
24.982511 53.000000
25.001994 48.000000
25.021476 63.000000
25.040959 77.000000
25.060441 66.000000
25.079923 51.000000
25.099406 68.000000
25.118888 60.000000
25.138370 63.000000
25.157853 61.000000
25.177335 52.000000
25.196817 56.000000
25.216300 73.000000
25.235782 72.000000
25.255265 69.000000
25.274747 78.000000
25.294229 64.000000
25.313712 61.000000
25.333194 66.000000
25.352676 61.000000
25.372159 43.000000
25.391641 68.000000
25.411124 68.000000
25.430606 69.000000
25.450088 65.000000
25.469571 52.000000
25.489053 63.000000
25.508535 78.000000
25.528018 63.000000
25.547500 64.000000
25.566982 62.000000
25.586465 59.000000
25.605947 64.000000
25.625430 63.000000
25.644912 75.000000
25.664394 93.000000
25.683877 88.000000
25.703359 122.000000
25.722841 127.000000
25.742324 110.000000
25.761806 133.000000
25.781289 138.000000
25.800771 120.000000
25.820253 123.000000
25.839736 115.000000
25.859218 135.000000
25.878700 125.000000
25.898183 141.000000
25.917665 133.000000
25.937148 132.000000
25.956630 136.000000
25.976112 156.000000
25.995595 134.000000
26.015077 135.000000
26.034559 115.000000
26.054042 147.000000
26.073524 148.000000
26.093006 131.000000
26.112489 118.000000
26.131971 151.000000
26.151454 164.000000
26.170936 147.000000
26.190418 187.000000
26.209901 145.000000
26.229383 156.000000
26.248865 170.000000
26.268348 155.000000
26.287830 225.000000
26.307313 205.000000
26.326795 213.000000
26.346277 249.000000
26.365760 228.000000
26.385242 244.000000
26.404724 309.000000
26.424207 345.000000
26.443689 431.000000
26.463171 553.000000
26.482654 796.000000
26.502136 1185.000000
26.521619 2182.000000
26.541101 3742.000000
26.560583 6747.000000
26.580066 12011.000000
26.599548 18087.000000
26.619030 23073.000000
26.638513 21336.000000
26.657995 14174.000000
26.677478 11784.000000
26.696960 10902.000000
26.716442 6335.000000
26.735925 2338.000000
26.755407 962.000000
26.774889 664.000000
26.794372 499.000000
26.813854 418.000000
26.833336 323.000000
26.852819 315.000000
26.872301 271.000000
26.891784 254.000000
26.911266 204.000000
26.930748 189.000000
26.950231 201.000000
26.969713 174.000000
26.989195 192.000000
27.008678 188.000000
27.028160 153.000000
27.047643 164.000000
27.067125 132.000000
27.086607 116.000000
27.106090 133.000000
27.125572 147.000000
27.145054 133.000000
27.164537 118.000000
27.184019 131.000000
27.203501 125.000000
27.222984 115.000000
27.242466 147.000000
27.261949 131.000000
27.281431 133.000000
27.300913 104.000000
27.320396 117.000000
27.339878 100.000000
27.359360 114.000000
27.378843 110.000000
27.398325 107.000000
27.417808 113.000000
27.437290 103.000000
27.456772 99.000000
27.476255 99.000000
27.495737 103.000000
27.515219 78.000000
27.534702 102.000000
27.554184 105.000000
27.573667 80.000000
27.593149 93.000000
27.612631 93.000000
27.632114 111.000000
27.651596 84.000000
27.671078 85.000000
27.690561 107.000000
27.710043 100.000000
27.729525 97.000000
27.749008 88.000000
27.768490 107.000000
27.787973 84.000000
27.807455 91.000000
27.826937 98.000000
27.846420 98.000000
27.865902 90.000000
27.885384 108.000000
27.904867 73.000000
27.924349 92.000000
27.943832 99.000000
27.963314 88.000000
27.982796 87.000000
28.002279 80.000000
28.021761 77.000000
28.041243 108.000000
28.060726 100.000000
28.080208 72.000000
28.099690 85.000000
28.119173 93.000000
28.138655 90.000000
28.158138 82.000000
28.177620 97.000000
28.197102 89.000000
28.216585 86.000000
28.236067 85.000000
28.255549 75.000000
28.275032 91.000000
28.294514 69.000000
28.313997 79.000000
28.333479 79.000000
28.352961 61.000000
28.372444 88.000000
28.391926 80.000000
28.411408 52.000000
28.430891 97.000000
28.450373 76.000000
28.469855 84.000000
28.489338 88.000000
28.508820 83.000000
28.528303 76.000000
28.547785 94.000000
28.567267 75.000000
28.586750 81.000000
28.606232 73.000000
28.625714 68.000000
28.645197 88.000000
28.664679 72.000000
28.684162 87.000000
28.703644 64.000000
28.723126 64.000000
28.742609 56.000000
28.762091 77.000000
28.781573 72.000000
28.801056 47.000000
28.820538 74.000000
28.840020 86.000000
28.859503 76.000000
28.878985 82.000000
28.898468 89.000000
28.917950 69.000000
28.937432 71.000000
28.956915 68.000000
28.976397 82.000000
28.995879 56.000000
29.015362 76.000000
29.034844 83.000000
29.054327 103.000000
29.073809 78.000000
29.093291 99.000000
29.112774 86.000000
29.132256 83.000000
29.151738 62.000000
29.171221 101.000000
29.190703 82.000000
29.210185 82.000000
29.229668 63.000000
29.249150 70.000000
29.268633 75.000000
29.288115 62.000000
29.307597 92.000000
29.327080 71.000000
29.346562 97.000000
29.366044 97.000000
29.385527 98.000000
29.405009 81.000000
29.424492 80.000000
29.443974 91.000000
29.463456 92.000000
29.482939 74.000000
29.502421 83.000000
29.521903 77.000000
29.541386 69.000000
29.560868 68.000000
29.580351 70.000000
29.599833 95.000000
29.619315 61.000000
29.638798 81.000000
29.658280 74.000000
29.677762 77.000000
29.697245 64.000000
29.716727 76.000000
29.736209 70.000000
29.755692 78.000000
29.775174 69.000000
29.794657 69.000000
29.814139 63.000000
29.833621 67.000000
29.853104 76.000000
29.872586 78.000000
29.892068 81.000000
29.911551 66.000000
29.931033 79.000000
29.950516 69.000000
29.969998 68.000000
29.989480 75.000000
30.008963 62.000000
30.028445 64.000000
30.047927 56.000000
30.067410 74.000000
30.086892 67.000000
30.106374 60.000000
30.125857 73.000000
30.145339 63.000000
30.164822 72.000000
30.184304 56.000000
30.203786 65.000000
30.223269 50.000000
30.242751 70.000000
30.262233 59.000000
30.281716 63.000000
30.301198 78.000000
30.320681 75.000000
30.340163 73.000000
30.359645 66.000000
30.379128 67.000000
30.398610 71.000000
30.418092 73.000000
30.437575 57.000000
30.457057 62.000000
30.476539 62.000000
30.496022 80.000000
30.515504 53.000000
30.534987 69.000000
30.554469 58.000000
30.573951 64.000000
30.593434 63.000000
30.612916 85.000000
30.632398 68.000000
30.651881 82.000000
30.671363 47.000000
30.690846 63.000000
30.710328 65.000000
30.729810 55.000000
30.749293 62.000000
30.768775 57.000000
30.788257 51.000000
30.807740 68.000000
30.827222 72.000000
30.846704 64.000000
30.866187 58.000000
30.885669 63.000000
30.905152 58.000000
30.924634 54.000000
30.944116 55.000000
30.963599 66.000000
30.983081 61.000000
31.002563 53.000000
31.022046 65.000000
31.041528 54.000000
31.061011 56.000000
31.080493 63.000000
31.099975 65.000000
31.119458 60.000000
31.138940 58.000000
31.158422 63.000000
31.177905 59.000000
31.197387 73.000000
31.216870 63.000000
31.236352 71.000000
31.255834 67.000000
31.275317 59.000000
31.294799 75.000000
31.314281 52.000000
31.333764 62.000000
31.353246 65.000000
31.372728 62.000000
31.392211 64.000000
31.411693 68.000000
31.431176 55.000000
31.450658 61.000000
31.470140 66.000000
31.489623 71.000000
31.509105 57.000000
31.528587 58.000000
31.548070 80.000000
31.567552 81.000000
31.587035 58.000000
31.606517 68.000000
31.625999 45.000000
31.645482 53.000000
31.664964 59.000000
31.684446 50.000000
31.703929 57.000000
31.723411 66.000000
31.742893 43.000000
31.762376 66.000000
31.781858 66.000000
31.801341 64.000000
31.820823 48.000000
31.840305 57.000000
31.859788 44.000000
31.879270 65.000000
31.898752 51.000000
31.918235 66.000000
31.937717 67.000000
31.957200 68.000000
31.976682 57.000000
31.996164 51.000000
32.015647 59.000000
32.035129 43.000000
32.054611 53.000000
32.074094 72.000000
32.093576 60.000000
32.113058 55.000000
32.132541 57.000000
32.152023 57.000000
32.171506 65.000000
32.190988 50.000000
32.210470 54.000000
32.229953 45.000000
32.249435 63.000000
32.268917 59.000000
32.288400 64.000000
32.307882 51.000000
32.327365 56.000000
32.346847 56.000000
32.366329 58.000000
32.385812 57.000000
32.405294 46.000000
32.424776 54.000000
32.444259 49.000000
32.463741 47.000000
32.483223 49.000000
32.502706 49.000000
32.522188 59.000000
32.541671 67.000000
32.561153 53.000000
32.580635 57.000000
32.600118 60.000000
32.619600 52.000000
32.639082 62.000000
32.658565 62.000000
32.678047 49.000000
32.697530 57.000000
32.717012 50.000000
32.736494 36.000000
32.755977 61.000000
32.775459 66.000000
32.794941 54.000000
32.814424 71.000000
32.833906 62.000000
32.853389 54.000000
32.872871 50.000000
32.892353 66.000000
32.911836 54.000000
32.931318 55.000000
32.950800 57.000000
32.970283 49.000000
32.989765 75.000000
33.009247 53.000000
33.028730 55.000000
33.048212 51.000000
33.067695 66.000000
33.087177 56.000000
33.106659 60.000000
33.126142 54.000000
33.145624 62.000000
33.165106 51.000000
33.184589 57.000000
33.204071 53.000000
33.223554 72.000000
33.243036 52.000000
33.262518 57.000000
33.282001 55.000000
33.301483 53.000000
33.320965 59.000000
33.340448 59.000000
33.359930 53.000000
33.379412 54.000000
33.398895 41.000000
33.418377 62.000000
33.437860 56.000000
33.457342 49.000000
33.476824 58.000000
33.496307 68.000000
33.515789 49.000000
33.535271 51.000000
33.554754 40.000000
33.574236 60.000000
33.593719 54.000000
33.613201 47.000000
33.632683 62.000000
33.652166 44.000000
33.671648 59.000000
33.691130 59.000000
33.710613 59.000000
33.730095 60.000000
33.749577 48.000000
33.769060 48.000000
33.788542 53.000000
33.808025 65.000000
33.827507 36.000000
33.846989 49.000000
33.866472 49.000000
33.885954 45.000000
33.905436 48.000000
33.924919 57.000000
33.944401 46.000000
33.963884 51.000000
33.983366 60.000000
34.002848 48.000000
34.022331 52.000000
34.041813 54.000000
34.061295 50.000000
34.080778 54.000000
34.100260 38.000000
34.119742 40.000000
34.139225 32.000000
34.158707 35.000000
34.178190 55.000000
34.197672 55.000000
34.217154 52.000000
34.236637 58.000000
34.256119 60.000000
34.275601 54.000000
34.295084 55.000000
34.314566 46.000000
34.334049 48.000000
34.353531 42.000000
34.373013 59.000000
34.392496 60.000000
34.411978 50.000000
34.431460 54.000000
34.450943 47.000000
34.470425 34.000000
34.489908 42.000000
34.509390 54.000000
34.528872 53.000000
34.548355 54.000000
34.567837 61.000000
34.587319 47.000000
34.606802 54.000000
34.626284 52.000000
34.645766 56.000000
34.665249 54.000000
34.684731 60.000000
34.704214 51.000000
34.723696 51.000000
34.743178 61.000000
34.762661 52.000000
34.782143 52.000000
34.801625 62.000000
34.821108 49.000000
34.840590 54.000000
34.860073 56.000000
34.879555 49.000000
34.899037 49.000000
34.918520 52.000000
34.938002 59.000000
34.957484 56.000000
34.976967 54.000000
34.996449 43.000000
35.015931 41.000000
35.035414 50.000000
35.054896 53.000000
35.074379 38.000000
35.093861 41.000000
35.113343 62.000000
35.132826 55.000000
35.152308 55.000000
35.171790 44.000000
35.191273 48.000000
35.210755 45.000000
35.230238 52.000000
35.249720 49.000000
35.269202 54.000000
35.288685 47.000000
35.308167 48.000000
35.327649 50.000000
35.347132 51.000000
35.366614 61.000000
35.386096 54.000000
35.405579 54.000000
35.425061 71.000000
35.444544 58.000000
35.464026 54.000000
35.483508 57.000000
35.502991 52.000000
35.522473 52.000000
35.541955 49.000000
35.561438 48.000000
35.580920 58.000000
35.600403 59.000000
35.619885 42.000000
35.639367 51.000000
35.658850 69.000000
35.678332 52.000000
35.697814 64.000000
35.717297 51.000000
35.736779 51.000000
35.756261 39.000000
35.775744 68.000000
35.795226 53.000000
35.814709 55.000000
35.834191 56.000000
35.853673 62.000000
35.873156 62.000000
35.892638 47.000000
35.912120 54.000000
35.931603 42.000000
35.951085 57.000000
35.970568 45.000000
35.990050 50.000000
36.009532 55.000000
36.029015 43.000000
36.048497 53.000000
36.067979 48.000000
36.087462 63.000000
36.106944 55.000000
36.126426 48.000000
36.145909 55.000000
36.165391 59.000000
36.184874 52.000000
36.204356 50.000000
36.223838 53.000000
36.243321 60.000000
36.262803 74.000000
36.282285 73.000000
36.301768 78.000000
36.321250 86.000000
36.340733 91.000000
36.360215 107.000000
36.379697 106.000000
36.399180 131.000000
36.418662 153.000000
36.438144 277.000000
36.457627 454.000000
36.477109 798.000000
36.496592 1039.000000
36.516074 1552.000000
36.535556 1802.000000
36.555039 1327.000000
36.574521 879.000000
36.594003 737.000000
36.613486 926.000000
36.632968 900.000000
36.652450 595.000000
36.671933 283.000000
36.691415 151.000000
36.710898 116.000000
36.730380 91.000000
36.749862 96.000000
36.769345 97.000000
36.788827 79.000000
36.808309 69.000000
36.827792 54.000000
36.847274 57.000000
36.866757 67.000000
36.886239 43.000000
36.905721 57.000000
36.925204 73.000000
36.944686 51.000000
36.964168 49.000000
36.983651 55.000000
37.003133 55.000000
37.022615 55.000000
37.042098 49.000000
37.061580 48.000000
37.081063 45.000000
37.100545 47.000000
37.120027 53.000000
37.139510 46.000000
37.158992 47.000000
37.178474 37.000000
37.197957 49.000000
37.217439 65.000000
37.236922 42.000000
37.256404 58.000000
37.275886 43.000000
37.295369 47.000000
37.314851 48.000000
37.334333 49.000000
37.353816 62.000000
37.373298 67.000000
37.392780 52.000000
37.412263 57.000000
37.431745 52.000000
37.451228 61.000000
37.470710 36.000000
37.490192 52.000000
37.509675 46.000000
37.529157 42.000000
37.548639 38.000000
37.568122 49.000000
37.587604 58.000000
37.607087 53.000000
37.626569 60.000000
37.646051 49.000000
37.665534 57.000000
37.685016 57.000000
37.704498 43.000000
37.723981 55.000000
37.743463 43.000000
37.762945 63.000000
37.782428 58.000000
37.801910 37.000000
37.821393 46.000000
37.840875 42.000000
37.860357 51.000000
37.879840 42.000000
37.899322 51.000000
37.918804 60.000000
37.938287 55.000000
37.957769 50.000000
37.977252 50.000000
37.996734 44.000000
38.016216 60.000000
38.035699 45.000000
38.055181 41.000000
38.074663 58.000000
38.094146 49.000000
38.113628 51.000000
38.133111 54.000000
38.152593 53.000000
38.172075 60.000000
38.191558 58.000000
38.211040 63.000000
38.230522 45.000000
38.250005 50.000000
38.269487 73.000000
38.288969 50.000000
38.308452 39.000000
38.327934 43.000000
38.347417 50.000000
38.366899 54.000000
38.386381 45.000000
38.405864 43.000000
38.425346 50.000000
38.444828 44.000000
38.464311 47.000000
38.483793 60.000000
38.503276 46.000000
38.522758 61.000000
38.542240 46.000000
38.561723 47.000000
38.581205 50.000000
38.600687 51.000000
38.620170 56.000000
38.639652 50.000000
38.659134 48.000000
38.678617 49.000000
38.698099 56.000000
38.717582 61.000000
38.737064 46.000000
38.756546 47.000000
38.776029 67.000000
38.795511 47.000000
38.814993 51.000000
38.834476 45.000000
38.853958 52.000000
38.873441 61.000000
38.892923 55.000000
38.912405 50.000000
38.931888 53.000000
38.951370 53.000000
38.970852 63.000000
38.990335 60.000000
39.009817 48.000000
39.029299 53.000000
39.048782 38.000000
39.068264 57.000000
39.087747 50.000000
39.107229 60.000000
39.126711 52.000000
39.146194 52.000000
39.165676 51.000000
39.185158 68.000000
39.204641 62.000000
39.224123 68.000000
39.243606 66.000000
39.263088 86.000000
39.282570 92.000000
39.302053 99.000000
39.321535 111.000000
39.341017 171.000000
39.360500 298.000000
39.379982 426.000000
39.399464 687.000000
39.418947 1093.000000
39.438429 1543.000000
39.457912 1565.000000
39.477394 1155.000000
39.496876 818.000000
39.516359 710.000000
39.535841 866.000000
39.555323 868.000000
39.574806 686.000000
39.594288 389.000000
39.613771 238.000000
39.633253 160.000000
39.652735 105.000000
39.672218 94.000000
39.691700 74.000000
39.711182 71.000000
39.730665 69.000000
39.750147 66.000000
39.769630 64.000000
39.789112 49.000000
39.808594 50.000000
39.828077 55.000000
39.847559 58.000000
39.867041 60.000000
39.886524 46.000000
39.906006 54.000000
39.925488 64.000000
39.944971 60.000000
39.964453 63.000000
39.983936 64.000000
40.003418 63.000000
40.022900 56.000000
40.042383 70.000000
40.061865 66.000000
40.081347 67.000000
40.100830 87.000000
40.120312 75.000000
40.139795 81.000000
40.159277 108.000000
40.178759 149.000000
40.198242 214.000000
40.217724 366.000000
40.237206 527.000000
40.256689 707.000000
40.276171 823.000000
40.295653 564.000000
40.315136 379.000000
40.334618 343.000000
40.354101 404.000000
40.373583 421.000000
40.393065 328.000000
40.412548 211.000000
40.432030 145.000000
40.451512 90.000000
40.470995 84.000000
40.490477 75.000000
40.509960 67.000000
40.529442 53.000000
40.548924 55.000000
40.568407 45.000000
40.587889 75.000000
40.607371 62.000000
40.626854 64.000000
40.646336 52.000000
40.665818 57.000000
40.685301 54.000000
40.704783 40.000000
40.724266 64.000000
40.743748 50.000000
40.763230 43.000000
40.782713 59.000000
40.802195 58.000000
40.821677 48.000000
40.841160 51.000000
40.860642 56.000000
40.880125 46.000000
40.899607 39.000000
40.919089 47.000000
40.938572 59.000000
40.958054 46.000000
40.977536 66.000000
40.997019 60.000000
41.016501 46.000000
41.035983 50.000000
41.055466 51.000000
41.074948 46.000000
41.094431 44.000000
41.113913 63.000000
41.133395 49.000000
41.152878 58.000000
41.172360 62.000000
41.191842 35.000000
41.211325 53.000000
41.230807 51.000000
41.250290 54.000000
41.269772 47.000000
41.289254 53.000000
41.308737 50.000000
41.328219 52.000000
41.347701 42.000000
41.367184 40.000000
41.386666 50.000000
41.406149 49.000000
41.425631 52.000000
41.445113 40.000000
41.464596 58.000000
41.484078 50.000000
41.503560 46.000000
41.523043 56.000000
41.542525 31.000000
41.562007 46.000000
41.581490 48.000000
41.600972 46.000000
41.620455 55.000000
41.639937 59.000000
41.659419 43.000000
41.678902 52.000000
41.698384 53.000000
41.717866 64.000000
41.737349 51.000000
41.756831 46.000000
41.776314 50.000000
41.795796 59.000000
41.815278 42.000000
41.834761 53.000000
41.854243 57.000000
41.873725 51.000000
41.893208 49.000000
41.912690 46.000000
41.932172 59.000000
41.951655 50.000000
41.971137 44.000000
41.990620 64.000000
42.010102 58.000000
42.029584 57.000000
42.049067 57.000000
42.068549 66.000000
42.088031 55.000000
42.107514 59.000000
42.126996 70.000000
42.146479 48.000000
42.165961 63.000000
42.185443 81.000000
42.204926 84.000000
42.224408 78.000000
42.243890 94.000000
42.263373 103.000000
42.282855 96.000000
42.302337 122.000000
42.321820 149.000000
42.341302 290.000000
42.360785 457.000000
42.380267 707.000000
42.399749 1108.000000
42.419232 1575.000000
42.438714 1621.000000
42.458196 1171.000000
42.477679 781.000000
42.497161 687.000000
42.516644 755.000000
42.536126 884.000000
42.555608 758.000000
42.575091 497.000000
42.594573 280.000000
42.614055 182.000000
42.633538 146.000000
42.653020 93.000000
42.672502 77.000000
42.691985 71.000000
42.711467 63.000000
42.730950 69.000000
42.750432 54.000000
42.769914 66.000000
42.789397 60.000000
42.808879 56.000000
42.828361 50.000000
42.847844 64.000000
42.867326 52.000000
42.886809 47.000000
42.906291 45.000000
42.925773 54.000000
42.945256 49.000000
42.964738 43.000000
42.984220 66.000000
43.003703 62.000000
43.023185 49.000000
43.042667 65.000000
43.062150 50.000000
43.081632 33.000000
43.101115 48.000000
43.120597 43.000000
43.140079 43.000000
43.159562 40.000000
43.179044 50.000000
43.198526 45.000000
43.218009 54.000000
43.237491 44.000000
43.256974 55.000000
43.276456 38.000000
43.295938 46.000000
43.315421 45.000000
43.334903 37.000000
43.354385 38.000000
43.373868 44.000000
43.393350 57.000000
43.412833 59.000000
43.432315 44.000000
43.451797 43.000000
43.471280 53.000000
43.490762 64.000000
43.510244 49.000000
43.529727 61.000000
43.549209 62.000000
43.568691 46.000000
43.588174 36.000000
43.607656 46.000000
43.627139 37.000000
43.646621 50.000000
43.666103 44.000000
43.685586 53.000000
43.705068 61.000000
43.724550 44.000000
43.744033 46.000000
43.763515 43.000000
43.782998 42.000000
43.802480 50.000000
43.821962 36.000000
43.841445 49.000000
43.860927 40.000000
43.880409 47.000000
43.899892 37.000000
43.919374 44.000000
43.938856 45.000000
43.958339 39.000000
43.977821 54.000000
43.997304 48.000000
44.016786 48.000000
44.036268 45.000000
44.055751 36.000000
44.075233 51.000000
44.094715 47.000000
44.114198 37.000000
44.133680 47.000000
44.153163 47.000000
44.172645 43.000000
44.192127 48.000000
44.211610 53.000000
44.231092 56.000000
44.250574 43.000000
44.270057 38.000000
44.289539 43.000000
44.309021 48.000000
44.328504 50.000000
44.347986 55.000000
44.367469 52.000000
44.386951 37.000000
44.406433 55.000000
44.425916 49.000000
44.445398 40.000000
44.464880 49.000000
44.484363 43.000000
44.503845 44.000000
44.523328 34.000000
44.542810 58.000000
44.562292 53.000000
44.581775 48.000000
44.601257 42.000000
44.620739 40.000000
44.640222 56.000000
44.659704 52.000000
44.679186 43.000000
44.698669 35.000000
44.718151 41.000000
44.737634 47.000000
44.757116 53.000000
44.776598 41.000000
44.796081 41.000000
44.815563 42.000000
44.835045 49.000000
44.854528 44.000000
44.874010 44.000000
44.893493 51.000000
44.912975 54.000000
44.932457 44.000000
44.951940 40.000000
44.971422 52.000000
44.990904 37.000000
45.010387 49.000000
45.029869 33.000000
45.049352 48.000000
45.068834 44.000000
45.088316 57.000000
45.107799 46.000000
45.127281 40.000000
45.146763 41.000000
45.166246 45.000000
45.185728 37.000000
45.205210 46.000000
45.224693 56.000000
45.244175 46.000000
45.263658 44.000000
45.283140 40.000000
45.302622 35.000000
45.322105 48.000000
45.341587 54.000000
45.361069 57.000000
45.380552 50.000000
45.400034 52.000000
45.419517 44.000000
45.438999 52.000000
45.458481 45.000000
45.477964 51.000000
45.497446 56.000000
45.516928 43.000000
45.536411 56.000000
45.555893 52.000000
45.575375 60.000000
45.594858 57.000000
45.614340 76.000000
45.633823 64.000000
45.653305 93.000000
45.672787 130.000000
45.692270 176.000000
45.711752 273.000000
45.731234 360.000000
45.750717 434.000000
45.770199 551.000000
45.789682 453.000000
45.809164 359.000000
45.828646 252.000000
45.848129 231.000000
45.867611 246.000000
45.887093 289.000000
45.906576 287.000000
45.926058 207.000000
45.945540 138.000000
45.965023 82.000000
45.984505 71.000000
46.003988 70.000000
46.023470 57.000000
46.042952 81.000000
46.062435 47.000000
46.081917 44.000000
46.101399 48.000000
46.120882 53.000000
46.140364 45.000000
46.159847 45.000000
46.179329 46.000000
46.198811 47.000000
46.218294 34.000000
46.237776 38.000000
46.257258 49.000000
46.276741 34.000000
46.296223 37.000000
46.315705 39.000000
46.335188 36.000000
46.354670 42.000000
46.374153 46.000000
46.393635 38.000000
46.413117 42.000000
46.432600 44.000000
46.452082 55.000000
46.471564 32.000000
46.491047 44.000000
46.510529 46.000000
46.530012 42.000000
46.549494 43.000000
46.568976 37.000000
46.588459 44.000000
46.607941 45.000000
46.627423 36.000000
46.646906 50.000000
46.666388 51.000000
46.685871 41.000000
46.705353 37.000000
46.724835 45.000000
46.744318 52.000000
46.763800 51.000000
46.783282 43.000000
46.802765 54.000000
46.822247 35.000000
46.841729 45.000000
46.861212 39.000000
46.880694 41.000000
46.900177 37.000000
46.919659 47.000000
46.939141 55.000000
46.958624 27.000000
46.978106 29.000000
46.997588 40.000000
47.017071 39.000000
47.036553 48.000000
47.056036 38.000000
47.075518 45.000000
47.095000 40.000000
47.114483 36.000000
47.133965 37.000000
47.153447 47.000000
47.172930 49.000000
47.192412 52.000000
47.211894 41.000000
47.231377 34.000000
47.250859 37.000000
47.270342 44.000000
47.289824 41.000000
47.309306 48.000000
47.328789 42.000000
47.348271 31.000000
47.367753 46.000000
47.387236 38.000000
47.406718 52.000000
47.426201 52.000000
47.445683 46.000000
47.465165 48.000000
47.484648 73.000000
47.504130 61.000000
47.523612 81.000000
47.543095 53.000000
47.562577 59.000000
47.582059 49.000000
47.601542 58.000000
47.621024 56.000000
47.640507 61.000000
47.659989 57.000000
47.679471 47.000000
47.698954 47.000000
47.718436 47.000000
47.737918 39.000000
47.757401 37.000000
47.776883 40.000000
47.796366 38.000000
47.815848 39.000000
47.835330 43.000000
47.854813 44.000000
47.874295 40.000000
47.893777 39.000000
47.913260 44.000000
47.932742 35.000000
47.952224 38.000000
47.971707 40.000000
47.991189 36.000000
48.010672 35.000000
48.030154 45.000000
48.049636 37.000000
48.069119 39.000000
48.088601 39.000000
48.108083 44.000000
48.127566 40.000000
48.147048 48.000000
48.166531 46.000000
48.186013 46.000000
48.205495 37.000000
48.224978 49.000000
48.244460 41.000000
48.263942 46.000000
48.283425 41.000000
48.302907 40.000000
48.322389 48.000000
48.341872 59.000000
48.361354 49.000000
48.380837 43.000000
48.400319 50.000000
48.419801 41.000000
48.439284 57.000000
48.458766 41.000000
48.478248 47.000000
48.497731 49.000000
48.517213 61.000000
48.536696 47.000000
48.556178 39.000000
48.575660 47.000000
48.595143 64.000000
48.614625 52.000000
48.634107 47.000000
48.653590 50.000000
48.673072 41.000000
48.692555 38.000000
48.712037 41.000000
48.731519 43.000000
48.751002 40.000000
48.770484 42.000000
48.789966 40.000000
48.809449 33.000000
48.828931 51.000000
48.848413 44.000000
48.867896 49.000000
48.887378 35.000000
48.906861 38.000000
48.926343 40.000000
48.945825 61.000000
48.965308 43.000000
48.984790 36.000000
49.004272 45.000000
49.023755 34.000000
49.043237 51.000000
49.062720 54.000000
49.082202 46.000000
49.101684 53.000000
49.121167 54.000000
49.140649 50.000000
49.160131 53.000000
49.179614 61.000000
49.199096 45.000000
49.218578 53.000000
49.238061 44.000000
49.257543 54.000000
49.277026 44.000000
49.296508 49.000000
49.315990 52.000000
49.335473 53.000000
49.354955 41.000000
49.374437 51.000000
49.393920 34.000000
49.413402 52.000000
49.432885 54.000000
49.452367 58.000000
49.471849 51.000000
49.491332 55.000000
49.510814 50.000000
49.530296 42.000000
49.549779 58.000000
49.569261 49.000000
49.588743 58.000000
49.608226 48.000000
49.627708 34.000000
49.647191 53.000000
49.666673 38.000000
49.686155 51.000000
49.705638 50.000000
49.725120 57.000000
49.744602 47.000000
49.764085 55.000000
49.783567 62.000000
49.803050 69.000000
49.822532 73.000000
49.842014 54.000000
49.861497 77.000000
49.880979 75.000000
49.900461 77.000000
49.919944 102.000000
49.939426 119.000000
49.958908 118.000000
49.978391 143.000000
49.997873 191.000000
50.017356 292.000000
50.036838 503.000000
50.056320 850.000000
50.075803 1215.000000
50.095285 1547.000000
50.114767 1707.000000
50.134250 1658.000000
50.153732 1149.000000
50.173215 842.000000
50.192697 711.000000
50.212179 814.000000
50.231662 880.000000
50.251144 927.000000
50.270626 813.000000
50.290109 540.000000
50.309591 290.000000
50.329074 208.000000
50.348556 141.000000
50.368038 115.000000
50.387521 80.000000
50.407003 85.000000
50.426485 81.000000
50.445968 67.000000
50.465450 90.000000
50.484932 56.000000
50.504415 60.000000
50.523897 64.000000
50.543380 92.000000
50.562862 96.000000
50.582344 154.000000
50.601827 140.000000
50.621309 113.000000
50.640791 110.000000
50.660274 89.000000
50.679756 75.000000
50.699239 83.000000
50.718721 76.000000
50.738203 81.000000
50.757686 80.000000
50.777168 55.000000
50.796650 45.000000
50.816133 65.000000
50.835615 67.000000
50.855097 56.000000
50.874580 56.000000
50.894062 54.000000
50.913545 44.000000
50.933027 55.000000
50.952509 42.000000
50.971992 56.000000
50.991474 31.000000
51.010956 41.000000
51.030439 45.000000
51.049921 48.000000
51.069404 36.000000
51.088886 42.000000
51.108368 49.000000
51.127851 39.000000
51.147333 42.000000
51.166815 46.000000
51.186298 38.000000
51.205780 36.000000
51.225262 40.000000
51.244745 34.000000
51.264227 34.000000
51.283710 61.000000
51.303192 50.000000
51.322674 42.000000
51.342157 28.000000
51.361639 53.000000
51.381121 37.000000
51.400604 45.000000
51.420086 42.000000
51.439569 46.000000
51.459051 39.000000
51.478533 43.000000
51.498016 39.000000
51.517498 36.000000
51.536980 48.000000
51.556463 45.000000
51.575945 40.000000
51.595427 48.000000
51.614910 40.000000
51.634392 40.000000
51.653875 31.000000
51.673357 30.000000
51.692839 50.000000
51.712322 38.000000
51.731804 42.000000
51.751286 37.000000
51.770769 39.000000
51.790251 31.000000
51.809734 42.000000
51.829216 43.000000
51.848698 46.000000
51.868181 36.000000
51.887663 51.000000
51.907145 40.000000
51.926628 39.000000
51.946110 34.000000
51.965593 38.000000
51.985075 39.000000
52.004557 46.000000
52.024040 43.000000
52.043522 44.000000
52.063004 50.000000
52.082487 44.000000
52.101969 40.000000
52.121451 43.000000
52.140934 28.000000
52.160416 35.000000
52.179899 45.000000
52.199381 34.000000
52.218863 49.000000
52.238346 45.000000
52.257828 36.000000
52.277310 38.000000
52.296793 36.000000
52.316275 30.000000
52.335758 47.000000
52.355240 32.000000
52.374722 57.000000
52.394205 40.000000
52.413687 23.000000
52.433169 47.000000
52.452652 48.000000
52.472134 36.000000
52.491616 33.000000
52.511099 34.000000
52.530581 41.000000
52.550064 26.000000
52.569546 48.000000
52.589028 34.000000
52.608511 38.000000
52.627993 46.000000
52.647475 35.000000
52.666958 39.000000
52.686440 41.000000
52.705923 24.000000
52.725405 38.000000
52.744887 35.000000
52.764370 37.000000
52.783852 38.000000
52.803334 42.000000
52.822817 39.000000
52.842299 42.000000
52.861781 43.000000
52.881264 52.000000
52.900746 34.000000
52.920229 42.000000
52.939711 39.000000
52.959193 37.000000
52.978676 33.000000
52.998158 36.000000
53.017640 40.000000
53.037123 35.000000
53.056605 42.000000
53.076088 38.000000
53.095570 39.000000
53.115052 40.000000
53.134535 49.000000
53.154017 35.000000
53.173499 36.000000
53.192982 33.000000
53.212464 38.000000
53.231946 52.000000
53.251429 41.000000
53.270911 40.000000
53.290394 42.000000
53.309876 36.000000
53.329358 40.000000
53.348841 34.000000
53.368323 40.000000
53.387805 42.000000
53.407288 32.000000
53.426770 32.000000
53.446253 32.000000
53.465735 49.000000
53.485217 44.000000
53.504700 44.000000
53.524182 42.000000
53.543664 45.000000
53.563147 37.000000
53.582629 45.000000
53.602112 57.000000
53.621594 52.000000
53.641076 39.000000
53.660559 42.000000
53.680041 46.000000
53.699523 44.000000
53.719006 36.000000
53.738488 44.000000
53.757970 34.000000
53.777453 40.000000
53.796935 43.000000
53.816418 38.000000
53.835900 48.000000
53.855382 34.000000
53.874865 33.000000
53.894347 41.000000
53.913829 45.000000
53.933312 39.000000
53.952794 48.000000
53.972277 51.000000
53.991759 40.000000
54.011241 35.000000
54.030724 34.000000
54.050206 37.000000
54.069688 32.000000
54.089171 39.000000
54.108653 43.000000
54.128135 39.000000
54.147618 36.000000
54.167100 39.000000
54.186583 37.000000
54.206065 38.000000
54.225547 34.000000
54.245030 37.000000
54.264512 40.000000
54.283994 49.000000
54.303477 41.000000
54.322959 40.000000
54.342442 35.000000
54.361924 42.000000
54.381406 38.000000
54.400889 39.000000
54.420371 40.000000
54.439853 48.000000
54.459336 40.000000
54.478818 38.000000
54.498300 44.000000
54.517783 37.000000
54.537265 46.000000
54.556748 43.000000
54.576230 42.000000
54.595712 63.000000
54.615195 56.000000
54.634677 61.000000
54.654159 51.000000
54.673642 57.000000
54.693124 67.000000
54.712607 72.000000
54.732089 101.000000
54.751571 117.000000
54.771054 195.000000
54.790536 289.000000
54.810018 388.000000
54.829501 535.000000
54.848983 598.000000
54.868465 616.000000
54.887948 462.000000
54.907430 332.000000
54.926913 183.000000
54.946395 222.000000
54.965877 271.000000
54.985360 332.000000
55.004842 346.000000
55.024324 281.000000
55.043807 235.000000
55.063289 120.000000
55.082772 107.000000
55.102254 63.000000
55.121736 65.000000
55.141219 56.000000
55.160701 57.000000
55.180183 67.000000
55.199666 54.000000
55.219148 86.000000
55.238630 105.000000
55.258113 150.000000
55.277595 229.000000
55.297078 253.000000
55.316560 245.000000
55.336042 191.000000
55.355525 147.000000
55.375007 120.000000
55.394489 107.000000
55.413972 124.000000
55.433454 139.000000
55.452937 146.000000
55.472419 147.000000
55.491901 97.000000
55.511384 74.000000
55.530866 52.000000
55.550348 49.000000
55.569831 42.000000
55.589313 46.000000
55.608796 33.000000
55.628278 37.000000
55.647760 44.000000
55.667243 45.000000
55.686725 45.000000
55.706207 30.000000
55.725690 36.000000
55.745172 29.000000
55.764654 34.000000
55.784137 37.000000
55.803619 44.000000
55.823102 41.000000
55.842584 40.000000
55.862066 36.000000
55.881549 47.000000
55.901031 46.000000
55.920513 44.000000
55.939996 34.000000
55.959478 43.000000
55.978961 39.000000
55.998443 42.000000
56.017925 41.000000
56.037408 34.000000
56.056890 38.000000
56.076372 32.000000
56.095855 27.000000
56.115337 45.000000
56.134819 52.000000
56.154302 39.000000
56.173784 40.000000
56.193267 36.000000
56.212749 33.000000
56.232231 34.000000
56.251714 27.000000
56.271196 25.000000
56.290678 35.000000
56.310161 35.000000
56.329643 29.000000
56.349126 36.000000
56.368608 47.000000
56.388090 33.000000
56.407573 36.000000
56.427055 39.000000
56.446537 34.000000
56.466020 38.000000
56.485502 43.000000
56.504984 34.000000
56.524467 42.000000
56.543949 41.000000
56.563432 33.000000
56.582914 37.000000
56.602396 32.000000
56.621879 37.000000
56.641361 52.000000
56.660843 24.000000
56.680326 33.000000
56.699808 42.000000
56.719291 48.000000
56.738773 43.000000
56.758255 36.000000
56.777738 39.000000
56.797220 43.000000
56.816702 43.000000
56.836185 25.000000
56.855667 34.000000
56.875149 38.000000
56.894632 40.000000
56.914114 28.000000
56.933597 62.000000
56.953079 38.000000
56.972561 44.000000
56.992044 37.000000
57.011526 35.000000
57.031008 34.000000
57.050491 37.000000
57.069973 41.000000
57.089456 41.000000
57.108938 39.000000
57.128420 44.000000
57.147903 50.000000
57.167385 54.000000
57.186867 77.000000
57.206350 57.000000
57.225832 60.000000
57.245315 59.000000
57.264797 52.000000
57.284279 44.000000
57.303762 43.000000
57.323244 43.000000
57.342726 50.000000
57.362209 59.000000
57.381691 58.000000
57.401173 54.000000
57.420656 44.000000
57.440138 47.000000
57.459621 52.000000
57.479103 30.000000
57.498585 35.000000
57.518068 51.000000
57.537550 44.000000
57.557032 47.000000
57.576515 38.000000
57.595997 38.000000
57.615480 29.000000
57.634962 40.000000
57.654444 45.000000
57.673927 24.000000
57.693409 45.000000
57.712891 33.000000
57.732374 41.000000
57.751856 34.000000
57.771338 47.000000
57.790821 37.000000
57.810303 39.000000
57.829786 31.000000
57.849268 39.000000
57.868750 32.000000
57.888233 39.000000
57.907715 29.000000
57.927197 36.000000
57.946680 45.000000
57.966162 34.000000
57.985645 38.000000
58.005127 41.000000
58.024609 45.000000
58.044092 35.000000
58.063574 46.000000
58.083056 35.000000
58.102539 34.000000
58.122021 38.000000
58.141503 42.000000
58.160986 51.000000
58.180468 41.000000
58.199951 42.000000
58.219433 40.000000
58.238915 40.000000
58.258398 47.000000
58.277880 38.000000
58.297362 39.000000
58.316845 39.000000
58.336327 42.000000
58.355810 40.000000
58.375292 36.000000
58.394774 29.000000
58.414257 35.000000
58.433739 39.000000
58.453221 35.000000
58.472704 36.000000
58.492186 46.000000
58.511668 41.000000
58.531151 30.000000
58.550633 42.000000
58.570116 38.000000
58.589598 33.000000
58.609080 42.000000
58.628563 31.000000
58.648045 40.000000
58.667527 45.000000
58.687010 34.000000
58.706492 42.000000
58.725975 36.000000
58.745457 37.000000
58.764939 37.000000
58.784422 39.000000
58.803904 40.000000
58.823386 54.000000
58.842869 34.000000
58.862351 37.000000
58.881834 38.000000
58.901316 33.000000
58.920798 37.000000
58.940281 38.000000
58.959763 47.000000
58.979245 38.000000
58.998728 32.000000
59.018210 36.000000
59.037692 45.000000
59.057175 41.000000
59.076657 48.000000
59.096140 47.000000
59.115622 50.000000
59.135104 44.000000
59.154587 35.000000
59.174069 41.000000
59.193551 49.000000
59.213034 38.000000
59.232516 40.000000
59.251999 42.000000
59.271481 33.000000
59.290963 49.000000
59.310446 43.000000
59.329928 35.000000
59.349410 34.000000
59.368893 43.000000
59.388375 44.000000
59.407857 35.000000
59.427340 55.000000
59.446822 35.000000
59.466305 42.000000
59.485787 42.000000
59.505269 36.000000
59.524752 51.000000
59.544234 43.000000
59.563716 52.000000
59.583199 45.000000
59.602681 57.000000
59.622164 64.000000
59.641646 72.000000
59.661128 81.000000
59.680611 68.000000
59.700093 69.000000
59.719575 63.000000
59.739058 80.000000
59.758540 97.000000
59.778022 135.000000
59.797505 148.000000
59.816987 218.000000
59.836470 328.000000
59.855952 492.000000
59.875434 735.000000
59.894917 1112.000000
59.914399 1445.000000
59.933881 1769.000000
59.953364 1553.000000
59.972846 1108.000000
59.992329 756.000000
60.011811 547.000000
60.031293 516.000000
60.050776 569.000000
60.070258 706.000000
60.089740 815.000000
60.109223 863.000000
60.128705 679.000000
60.148187 442.000000
60.167670 286.000000
60.187152 193.000000
60.206635 146.000000
60.226117 115.000000
60.245599 90.000000
60.265082 89.000000
60.284564 73.000000
60.304046 66.000000
60.323529 65.000000
60.343011 52.000000
60.362494 53.000000
60.381976 57.000000
60.401458 46.000000
60.420941 52.000000
60.440423 52.000000
60.459905 63.000000
60.479388 54.000000
60.498870 47.000000
60.518352 45.000000
60.537835 47.000000
60.557317 60.000000
60.576800 43.000000
60.596282 42.000000
60.615764 43.000000
60.635247 53.000000
60.654729 47.000000
60.674211 56.000000
60.693694 30.000000
60.713176 37.000000
60.732659 38.000000
60.752141 44.000000
60.771623 49.000000
60.791106 34.000000
60.810588 34.000000
60.830070 38.000000
60.849553 51.000000
60.869035 39.000000
60.888518 51.000000
60.908000 38.000000
60.927482 37.000000
60.946965 41.000000
60.966447 37.000000
60.985929 37.000000
61.005412 45.000000
61.024894 44.000000
61.044376 45.000000
61.063859 32.000000
61.083341 51.000000
61.102824 42.000000
61.122306 35.000000
61.141788 41.000000
61.161271 42.000000
61.180753 36.000000
61.200235 31.000000
61.219718 30.000000
61.239200 26.000000
61.258683 38.000000
61.278165 47.000000
61.297647 43.000000
61.317130 41.000000
61.336612 37.000000
61.356094 44.000000
61.375577 37.000000
61.395059 32.000000
61.414541 33.000000
61.434024 36.000000
61.453506 37.000000
61.472989 43.000000
61.492471 48.000000
61.511953 36.000000
61.531436 55.000000
61.550918 39.000000
61.570400 51.000000
61.589883 40.000000
61.609365 35.000000
61.628848 33.000000
61.648330 30.000000
61.667812 41.000000
61.687295 31.000000
61.706777 42.000000
61.726259 30.000000
61.745742 26.000000
61.765224 31.000000
61.784706 25.000000
61.804189 31.000000
61.823671 34.000000
61.843154 36.000000
61.862636 34.000000
61.882118 34.000000
61.901601 42.000000
61.921083 34.000000
61.940565 40.000000
61.960048 32.000000
61.979530 31.000000
61.999013 32.000000
62.018495 40.000000
62.037977 38.000000
62.057460 37.000000
62.076942 30.000000
62.096424 29.000000
62.115907 32.000000
62.135389 29.000000
62.154871 38.000000
62.174354 43.000000
62.193836 32.000000
62.213319 34.000000
62.232801 49.000000
62.252283 47.000000
62.271766 33.000000
62.291248 34.000000
62.310730 36.000000
62.330213 28.000000
62.349695 41.000000
62.369178 42.000000
62.388660 41.000000
62.408142 35.000000
62.427625 32.000000
62.447107 45.000000
62.466589 34.000000
62.486072 26.000000
62.505554 32.000000
62.525037 43.000000
62.544519 42.000000
62.564001 35.000000
62.583484 56.000000
62.602966 35.000000
62.622448 35.000000
62.641931 32.000000
62.661413 32.000000
62.680895 37.000000
62.700378 35.000000
62.719860 24.000000
62.739343 44.000000
62.758825 36.000000
62.778307 49.000000
62.797790 39.000000
62.817272 41.000000
62.836754 32.000000
62.856237 33.000000
62.875719 30.000000
62.895202 33.000000
62.914684 33.000000
62.934166 30.000000
62.953649 37.000000
62.973131 35.000000
62.992613 40.000000
63.012096 39.000000
63.031578 38.000000
63.051060 32.000000
63.070543 37.000000
63.090025 34.000000
63.109508 34.000000
63.128990 36.000000
63.148472 30.000000
63.167955 27.000000
63.187437 30.000000
63.206919 34.000000
63.226402 28.000000
63.245884 32.000000
63.265367 28.000000
63.284849 39.000000
63.304331 44.000000
63.323814 30.000000
63.343296 29.000000
63.362778 37.000000
63.382261 45.000000
63.401743 42.000000
63.421225 28.000000
63.440708 41.000000
63.460190 34.000000
63.479673 37.000000
63.499155 32.000000
63.518637 41.000000
63.538120 30.000000
63.557602 37.000000
63.577084 31.000000
63.596567 48.000000
63.616049 34.000000
63.635532 37.000000
63.655014 37.000000
63.674496 47.000000
63.693979 44.000000
63.713461 32.000000
63.732943 37.000000
63.752426 29.000000
63.771908 40.000000
63.791390 43.000000
63.810873 39.000000
63.830355 36.000000
63.849838 51.000000
63.869320 51.000000
63.888802 63.000000
63.908285 63.000000
63.927767 106.000000
63.947249 148.000000
63.966732 149.000000
63.986214 169.000000
64.005697 257.000000
64.025179 217.000000
64.044661 165.000000
64.064144 146.000000
64.083626 86.000000
64.103108 76.000000
64.122591 96.000000
64.142073 106.000000
64.161556 103.000000
64.181038 123.000000
64.200520 145.000000
64.220003 114.000000
64.239485 103.000000
64.258967 80.000000
64.278450 52.000000
64.297932 45.000000
64.317414 43.000000
64.336897 35.000000
64.356379 37.000000
64.375862 47.000000
64.395344 45.000000
64.414826 41.000000
64.434309 30.000000
64.453791 35.000000
64.473273 24.000000
64.492756 32.000000
64.512238 32.000000
64.531721 41.000000
64.551203 39.000000
64.570685 47.000000
64.590168 38.000000
64.609650 35.000000
64.629132 34.000000
64.648615 42.000000
64.668097 41.000000
64.687579 42.000000
64.707062 33.000000
64.726544 48.000000
64.746027 40.000000
64.765509 37.000000
64.784991 30.000000
64.804474 31.000000
64.823956 36.000000
64.843438 38.000000
64.862921 24.000000
64.882403 43.000000
64.901886 35.000000
64.921368 48.000000
64.940850 40.000000
64.960333 33.000000
64.979815 40.000000
64.999297 37.000000
65.018780 28.000000
65.038262 44.000000
65.057744 33.000000
65.077227 40.000000
65.096709 38.000000
65.116192 32.000000
65.135674 37.000000
65.155156 50.000000
65.174639 37.000000
65.194121 32.000000
65.213603 38.000000
65.233086 37.000000
65.252568 34.000000
65.272051 32.000000
65.291533 49.000000
65.311015 38.000000
65.330498 36.000000
65.349980 31.000000
65.369462 37.000000
65.388945 55.000000
65.408427 47.000000
65.427909 35.000000
65.447392 40.000000
65.466874 49.000000
65.486357 42.000000
65.505839 39.000000
65.525321 47.000000
65.544804 46.000000
65.564286 51.000000
65.583768 61.000000
65.603251 60.000000
65.622733 64.000000
65.642216 70.000000
65.661698 84.000000
65.681180 69.000000
65.700663 93.000000
65.720145 121.000000
65.739627 147.000000
65.759110 173.000000
65.778592 175.000000
65.798075 146.000000
65.817557 133.000000
65.837039 109.000000
65.856522 78.000000
65.876004 93.000000
65.895486 90.000000
65.914969 100.000000
65.934451 99.000000
65.953933 96.000000
65.973416 97.000000
65.992898 92.000000
66.012381 82.000000
66.031863 58.000000
66.051345 56.000000
66.070828 45.000000
66.090310 51.000000
66.109792 51.000000
66.129275 35.000000
66.148757 46.000000
66.168240 25.000000
66.187722 34.000000
66.207204 36.000000
66.226687 41.000000
66.246169 41.000000
66.265651 42.000000
66.285134 34.000000
66.304616 45.000000
66.324098 47.000000
66.343581 40.000000
66.363063 28.000000
66.382546 30.000000
66.402028 42.000000
66.421510 37.000000
66.440993 36.000000
66.460475 25.000000
66.479957 33.000000
66.499440 45.000000
66.518922 31.000000
66.538405 36.000000
66.557887 45.000000
66.577369 50.000000
66.596852 47.000000
66.616334 34.000000
66.635816 24.000000
66.655299 34.000000
66.674781 46.000000
66.694263 41.000000
66.713746 37.000000
66.733228 36.000000
66.752711 47.000000
66.772193 40.000000
66.791675 43.000000
66.811158 33.000000
66.830640 43.000000
66.850122 32.000000
66.869605 44.000000
66.889087 35.000000
66.908570 45.000000
66.928052 37.000000
66.947534 46.000000
66.967017 42.000000
66.986499 51.000000
67.005981 25.000000
67.025464 37.000000
67.044946 29.000000
67.064428 45.000000
67.083911 43.000000
67.103393 50.000000
67.122876 44.000000
67.142358 42.000000
67.161840 45.000000
67.181323 40.000000
67.200805 41.000000
67.220287 54.000000
67.239770 39.000000
67.259252 45.000000
67.278735 47.000000
67.298217 52.000000
67.317699 46.000000
67.337182 58.000000
67.356664 53.000000
67.376146 54.000000
67.395629 54.000000
67.415111 46.000000
67.434593 67.000000
67.454076 50.000000
67.473558 67.000000
67.493041 64.000000
67.512523 57.000000
67.532005 61.000000
67.551488 75.000000
67.570970 115.000000
67.590452 128.000000
67.609935 157.000000
67.629417 219.000000
67.648900 336.000000
67.668382 461.000000
67.687864 586.000000
67.707347 756.000000
67.726829 768.000000
67.746311 646.000000
67.765794 505.000000
67.785276 335.000000
67.804759 261.000000
67.824241 235.000000
67.843723 263.000000
67.863206 308.000000
67.882688 376.000000
67.902170 379.000000
67.921653 448.000000
67.941135 386.000000
67.960617 295.000000
67.980100 271.000000
67.999582 178.000000
68.019065 230.000000
68.038547 264.000000
68.058029 386.000000
68.077512 502.000000
68.096994 668.000000
68.116476 736.000000
68.135959 743.000000
68.155441 614.000000
68.174924 439.000000
68.194406 406.000000
68.213888 366.000000
68.233371 420.000000
68.252853 572.000000
68.272335 751.000000
68.291818 802.000000
68.311300 767.000000
68.330782 590.000000
68.350265 457.000000
68.369747 352.000000
68.389230 282.000000
68.408712 227.000000
68.428194 247.000000
68.447677 252.000000
68.467159 280.000000
68.486641 301.000000
68.506124 222.000000
68.525606 168.000000
68.545089 118.000000
68.564571 125.000000
68.584053 85.000000
68.603536 67.000000
68.623018 76.000000
68.642500 66.000000
68.661983 51.000000
68.681465 63.000000
68.700947 55.000000
68.720430 64.000000
68.739912 39.000000
68.759395 47.000000
68.778877 47.000000
68.798359 38.000000
68.817842 48.000000
68.837324 44.000000
68.856806 64.000000
68.876289 44.000000
68.895771 54.000000
68.915254 42.000000
68.934736 49.000000
68.954218 43.000000
68.973701 47.000000
68.993183 38.000000
69.012665 36.000000
69.032148 43.000000
69.051630 43.000000
69.071112 40.000000
69.090595 37.000000
69.110077 41.000000
69.129560 46.000000
69.149042 31.000000
69.168524 33.000000
69.188007 39.000000
69.207489 42.000000
69.226971 29.000000
69.246454 37.000000
69.265936 53.000000
69.285419 34.000000
69.304901 38.000000
69.324383 45.000000
69.343866 43.000000
69.363348 55.000000
69.382830 55.000000
69.402313 41.000000
69.421795 33.000000
69.441278 49.000000
69.460760 43.000000
69.480242 39.000000
69.499725 44.000000
69.519207 41.000000
69.538689 30.000000
69.558172 39.000000
69.577654 30.000000
69.597136 43.000000
69.616619 37.000000
69.636101 43.000000
69.655584 43.000000
69.675066 33.000000
69.694548 41.000000
69.714031 39.000000
69.733513 27.000000
69.752995 33.000000
69.772478 30.000000
69.791960 37.000000
69.811443 34.000000
69.830925 42.000000
69.850407 37.000000
69.869890 18.000000
69.889372 31.000000
69.908854 37.000000
69.928337 41.000000
69.947819 39.000000
69.967301 32.000000
69.986784 34.000000
70.006266 30.000000
70.025749 46.000000
