4.000000 1060.000000
4.019482 1022.000000
4.038965 972.000000
4.058447 939.000000
4.077929 930.000000
4.097412 957.000000
4.116894 924.000000
4.136377 875.000000
4.155859 936.000000
4.175341 896.000000
4.194824 890.000000
4.214306 941.000000
4.233788 902.000000
4.253271 804.000000
4.272753 832.000000
4.292236 828.000000
4.311718 756.000000
4.331200 816.000000
4.350683 768.000000
4.370165 798.000000
4.389647 710.000000
4.409130 780.000000
4.428612 752.000000
4.448094 689.000000
4.467577 787.000000
4.487059 734.000000
4.506542 758.000000
4.526024 724.000000
4.545506 716.000000
4.564989 716.000000
4.584471 709.000000
4.603953 693.000000
4.623436 727.000000
4.642918 673.000000
4.662401 688.000000
4.681883 667.000000
4.701365 630.000000
4.720848 622.000000
4.740330 611.000000
4.759812 651.000000
4.779295 649.000000
4.798777 623.000000
4.818259 672.000000
4.837742 604.000000
4.857224 592.000000
4.876707 616.000000
4.896189 584.000000
4.915671 621.000000
4.935154 555.000000
4.954636 610.000000
4.974118 596.000000
4.993601 593.000000
5.013083 588.000000
5.032566 556.000000
5.052048 565.000000
5.071530 564.000000
5.091013 535.000000
5.110495 558.000000
5.129977 598.000000
5.149460 528.000000
5.168942 501.000000
5.188425 562.000000
5.207907 524.000000
5.227389 559.000000
5.246872 518.000000
5.266354 550.000000
5.285836 543.000000
5.305319 494.000000
5.324801 520.000000
5.344283 566.000000
5.363766 513.000000
5.383248 513.000000
5.402731 519.000000
5.422213 483.000000
5.441695 500.000000
5.461178 515.000000
5.480660 513.000000
5.500142 515.000000
5.519625 477.000000
5.539107 541.000000
5.558590 508.000000
5.578072 458.000000
5.597554 482.000000
5.617037 469.000000
5.636519 493.000000
5.656001 506.000000
5.675484 467.000000
5.694966 483.000000
5.714448 500.000000
5.733931 511.000000
5.753413 490.000000
5.772896 512.000000
5.792378 495.000000
5.811860 446.000000
5.831343 470.000000
5.850825 480.000000
5.870307 483.000000
5.889790 500.000000
5.909272 467.000000
5.928755 482.000000
5.948237 463.000000
5.967719 484.000000
5.987202 448.000000
6.006684 437.000000
6.026166 426.000000
6.045649 425.000000
6.065131 419.000000
6.084613 459.000000
6.104096 426.000000
6.123578 486.000000
6.143061 420.000000
6.162543 456.000000
6.182025 461.000000
6.201508 448.000000
6.220990 434.000000
6.240472 401.000000
6.259955 427.000000
6.279437 411.000000
6.298920 452.000000
6.318402 445.000000
6.337884 437.000000
6.357367 386.000000
6.376849 430.000000
6.396331 405.000000
6.415814 451.000000
6.435296 399.000000
6.454778 405.000000
6.474261 384.000000
6.493743 418.000000
6.513226 424.000000
6.532708 442.000000
6.552190 411.000000
6.571673 396.000000
6.591155 400.000000
6.610637 377.000000
6.630120 396.000000
6.649602 412.000000
6.669085 381.000000
6.688567 385.000000
6.708049 379.000000
6.727532 390.000000
6.747014 391.000000
6.766496 347.000000
6.785979 398.000000
6.805461 371.000000
6.824944 385.000000
6.844426 343.000000
6.863908 377.000000
6.883391 351.000000
6.902873 379.000000
6.922355 348.000000
6.941838 352.000000
6.961320 353.000000
6.980802 391.000000
7.000285 398.000000
7.019767 415.000000
7.039250 364.000000
7.058732 351.000000
7.078214 379.000000
7.097697 363.000000
7.117179 349.000000
7.136661 330.000000
7.156144 359.000000
7.175626 319.000000
7.195109 343.000000
7.214591 351.000000
7.234073 343.000000
7.253556 347.000000
7.273038 360.000000
7.292520 345.000000
7.312003 353.000000
7.331485 356.000000
7.350967 348.000000
7.370450 341.000000
7.389932 353.000000
7.409415 376.000000
7.428897 347.000000
7.448379 328.000000
7.467862 294.000000
7.487344 324.000000
7.506826 354.000000
7.526309 337.000000
7.545791 355.000000
7.565274 303.000000
7.584756 355.000000
7.604238 348.000000
7.623721 366.000000
7.643203 352.000000
7.662685 341.000000
7.682168 333.000000
7.701650 319.000000
7.721132 356.000000
7.740615 348.000000
7.760097 293.000000
7.779580 327.000000
7.799062 317.000000
7.818544 315.000000
7.838027 323.000000
7.857509 328.000000
7.876991 329.000000
7.896474 332.000000
7.915956 339.000000
7.935439 314.000000
7.954921 327.000000
7.974403 313.000000
7.993886 338.000000
8.013368 305.000000
8.032850 312.000000
8.052333 308.000000
8.071815 305.000000
8.091297 291.000000
8.110780 312.000000
8.130262 335.000000
8.149745 333.000000
8.169227 308.000000
8.188709 272.000000
8.208192 335.000000
8.227674 328.000000
8.247156 315.000000
8.266639 303.000000
8.286121 330.000000
8.305604 343.000000
8.325086 352.000000
8.344568 339.000000
8.364051 339.000000
8.383533 290.000000
8.403015 301.000000
8.422498 325.000000
8.441980 322.000000
8.461463 300.000000
8.480945 323.000000
8.500427 326.000000
8.519910 328.000000
8.539392 278.000000
8.558874 305.000000
8.578357 308.000000
8.597839 336.000000
8.617321 313.000000
8.636804 290.000000
8.656286 314.000000
8.675769 310.000000
8.695251 344.000000
8.714733 346.000000
8.734216 284.000000
8.753698 309.000000
8.773180 261.000000
8.792663 330.000000
8.812145 297.000000
8.831628 344.000000
8.851110 332.000000
8.870592 302.000000
8.890075 321.000000
8.909557 300.000000
8.929039 275.000000
8.948522 305.000000
8.968004 305.000000
8.987486 304.000000
9.006969 318.000000
9.026451 294.000000
9.045934 287.000000
9.065416 310.000000
9.084898 260.000000
9.104381 289.000000
9.123863 307.000000
9.143345 315.000000
9.162828 272.000000
9.182310 326.000000
9.201793 305.000000
9.221275 310.000000
9.240757 293.000000
9.260240 319.000000
9.279722 269.000000
9.299204 311.000000
9.318687 297.000000
9.338169 260.000000
9.357651 293.000000
9.377134 282.000000
9.396616 300.000000
9.416099 324.000000
9.435581 303.000000
9.455063 301.000000
9.474546 277.000000
9.494028 272.000000
9.513510 287.000000
9.532993 267.000000
9.552475 282.000000
9.571958 320.000000
9.591440 290.000000
9.610922 260.000000
9.630405 268.000000
9.649887 251.000000
9.669369 279.000000
9.688852 325.000000
9.708334 288.000000
9.727816 272.000000
9.747299 257.000000
9.766781 272.000000
9.786264 287.000000
9.805746 292.000000
9.825228 282.000000
9.844711 286.000000
9.864193 299.000000
9.883675 308.000000
9.903158 270.000000
9.922640 297.000000
9.942123 287.000000
9.961605 250.000000
9.981087 275.000000
10.000570 272.000000
10.020052 269.000000
10.039534 307.000000
10.059017 294.000000
10.078499 287.000000
10.097982 269.000000
10.117464 288.000000
10.136946 271.000000
10.156429 267.000000
10.175911 303.000000
10.195393 265.000000
10.214876 264.000000
10.234358 270.000000
10.253840 250.000000
10.273323 270.000000
10.292805 261.000000
10.312288 291.000000
10.331770 276.000000
10.351252 291.000000
10.370735 284.000000
10.390217 263.000000
10.409699 300.000000
10.429182 268.000000
10.448664 275.000000
10.468147 281.000000
10.487629 261.000000
10.507111 245.000000
10.526594 288.000000
10.546076 248.000000
10.565558 258.000000
10.585041 285.000000
10.604523 257.000000
10.624005 271.000000
10.643488 253.000000
10.662970 238.000000
10.682453 261.000000
10.701935 261.000000
10.721417 268.000000
10.740900 289.000000
10.760382 267.000000
10.779864 277.000000
10.799347 242.000000
10.818829 243.000000
10.838312 254.000000
10.857794 261.000000
10.877276 250.000000
10.896759 268.000000
10.916241 264.000000
10.935723 284.000000
10.955206 273.000000
10.974688 248.000000
10.994170 265.000000
11.013653 259.000000
11.033135 294.000000
11.052618 273.000000
11.072100 259.000000
11.091582 230.000000
11.111065 239.000000
11.130547 247.000000
11.150029 266.000000
11.169512 224.000000
11.188994 235.000000
11.208477 242.000000
11.227959 264.000000
11.247441 275.000000
11.266924 242.000000
11.286406 269.000000
11.305888 258.000000
11.325371 260.000000
11.344853 248.000000
11.364335 249.000000
11.383818 251.000000
11.403300 247.000000
11.422783 269.000000
11.442265 259.000000
11.461747 238.000000
11.481230 228.000000
11.500712 253.000000
11.520194 262.000000
11.539677 243.000000
11.559159 242.000000
11.578642 255.000000
11.598124 232.000000
11.617606 224.000000
11.637089 235.000000
11.656571 242.000000
11.676053 267.000000
11.695536 263.000000
11.715018 251.000000
11.734500 224.000000
11.753983 231.000000
11.773465 285.000000
11.792948 272.000000
11.812430 238.000000
11.831912 239.000000
11.851395 240.000000
11.870877 240.000000
11.890359 234.000000
11.909842 255.000000
11.929324 248.000000
11.948807 227.000000
11.968289 231.000000
11.987771 229.000000
12.007254 235.000000
12.026736 227.000000
12.046218 247.000000
12.065701 235.000000
12.085183 227.000000
12.104666 232.000000
12.124148 279.000000
12.143630 251.000000
12.163113 233.000000
12.182595 235.000000
12.202077 260.000000
12.221560 234.000000
12.241042 221.000000
12.260524 234.000000
12.280007 222.000000
12.299489 243.000000
12.318972 229.000000
12.338454 238.000000
12.357936 214.000000
12.377419 249.000000
12.396901 266.000000
12.416383 258.000000
12.435866 216.000000
12.455348 207.000000
12.474831 224.000000
12.494313 236.000000
12.513795 238.000000
12.533278 260.000000
12.552760 216.000000
12.572242 217.000000
12.591725 243.000000
12.611207 226.000000
12.630689 238.000000
12.650172 247.000000
12.669654 215.000000
12.689137 213.000000
12.708619 221.000000
12.728101 234.000000
12.747584 236.000000
12.767066 214.000000
12.786548 231.000000
12.806031 249.000000
12.825513 242.000000
12.844996 204.000000
12.864478 232.000000
12.883960 211.000000
12.903443 198.000000
12.922925 229.000000
12.942407 235.000000
12.961890 240.000000
12.981372 260.000000
13.000854 215.000000
13.020337 228.000000
13.039819 219.000000
13.059302 224.000000
13.078784 235.000000
13.098266 222.000000
13.117749 213.000000
13.137231 224.000000
13.156713 234.000000
13.176196 235.000000
13.195678 226.000000
13.215161 205.000000
13.234643 241.000000
13.254125 227.000000
13.273608 198.000000
13.293090 211.000000
13.312572 233.000000
13.332055 189.000000
13.351537 224.000000
13.371019 212.000000
13.390502 237.000000
13.409984 216.000000
13.429467 233.000000
13.448949 209.000000
13.468431 222.000000
13.487914 197.000000
13.507396 223.000000
13.526878 204.000000
13.546361 187.000000
13.565843 228.000000
13.585326 230.000000
13.604808 192.000000
13.624290 212.000000
13.643773 215.000000
13.663255 231.000000
13.682737 201.000000
13.702220 223.000000
13.721702 225.000000
13.741185 221.000000
13.760667 198.000000
13.780149 189.000000
13.799632 218.000000
13.819114 199.000000
13.838596 169.000000
13.858079 230.000000
13.877561 193.000000
13.897043 217.000000
13.916526 192.000000
13.936008 200.000000
13.955491 203.000000
13.974973 237.000000
13.994455 212.000000
14.013938 197.000000
14.033420 195.000000
14.052902 192.000000
14.072385 217.000000
14.091867 216.000000
14.111350 200.000000
14.130832 194.000000
14.150314 200.000000
14.169797 187.000000
14.189279 193.000000
14.208761 202.000000
14.228244 192.000000
14.247726 203.000000
14.267208 203.000000
14.286691 192.000000
14.306173 203.000000
14.325656 199.000000
14.345138 204.000000
14.364620 212.000000
14.384103 176.000000
14.403585 206.000000
14.423067 197.000000
14.442550 198.000000
14.462032 184.000000
14.481515 182.000000
14.500997 172.000000
14.520479 162.000000
14.539962 220.000000
14.559444 185.000000
14.578926 167.000000
14.598409 216.000000
14.617891 195.000000
14.637373 183.000000
14.656856 191.000000
14.676338 205.000000
14.695821 166.000000
14.715303 170.000000
14.734785 185.000000
14.754268 176.000000
14.773750 218.000000
14.793232 197.000000
14.812715 207.000000
14.832197 209.000000
14.851680 194.000000
14.871162 202.000000
14.890644 184.000000
14.910127 209.000000
14.929609 193.000000
14.949091 194.000000
14.968574 205.000000
14.988056 185.000000
15.007538 169.000000
15.027021 185.000000
15.046503 149.000000
15.065986 191.000000
15.085468 180.000000
15.104950 172.000000
15.124433 209.000000
15.143915 183.000000
15.163397 176.000000
15.182880 175.000000
15.202362 186.000000
15.221845 215.000000
15.241327 180.000000
15.260809 189.000000
15.280292 213.000000
15.299774 160.000000
15.319256 184.000000
15.338739 163.000000
15.358221 174.000000
15.377704 195.000000
15.397186 183.000000
15.416668 153.000000
15.436151 174.000000
15.455633 183.000000
15.475115 172.000000
15.494598 151.000000
15.514080 170.000000
15.533562 167.000000
15.553045 169.000000
15.572527 158.000000
15.592010 212.000000
15.611492 176.000000
15.630974 172.000000
15.650457 176.000000
15.669939 204.000000
15.689421 161.000000
15.708904 182.000000
15.728386 174.000000
15.747869 210.000000
15.767351 174.000000
15.786833 174.000000
15.806316 166.000000
15.825798 149.000000
15.845280 172.000000
15.864763 151.000000
15.884245 167.000000
15.903727 195.000000
15.923210 194.000000
15.942692 182.000000
15.962175 168.000000
15.981657 170.000000
16.001139 152.000000
16.020622 170.000000
16.040104 184.000000
16.059586 176.000000
16.079069 178.000000
16.098551 163.000000
16.118034 163.000000
16.137516 174.000000
16.156998 164.000000
16.176481 181.000000
16.195963 153.000000
16.215445 165.000000
16.234928 142.000000
16.254410 180.000000
16.273892 155.000000
16.293375 151.000000
16.312857 153.000000
16.332340 170.000000
16.351822 158.000000
16.371304 174.000000
16.390787 195.000000
16.410269 153.000000
16.429751 172.000000
16.449234 148.000000
16.468716 161.000000
16.488199 157.000000
16.507681 171.000000
16.527163 168.000000
16.546646 187.000000
16.566128 161.000000
16.585610 169.000000
16.605093 157.000000
16.624575 185.000000
16.644057 171.000000
16.663540 191.000000
16.683022 176.000000
16.702505 181.000000
16.721987 165.000000
16.741469 152.000000
16.760952 176.000000
16.780434 169.000000
16.799916 184.000000
16.819399 187.000000
16.838881 167.000000
16.858364 154.000000
16.877846 165.000000
16.897328 158.000000
16.916811 172.000000
16.936293 141.000000
16.955775 159.000000
16.975258 156.000000
16.994740 166.000000
17.014222 156.000000
17.033705 146.000000
17.053187 169.000000
17.072670 166.000000
17.092152 154.000000
17.111634 159.000000
17.131117 150.000000
17.150599 146.000000
17.170081 190.000000
17.189564 181.000000
17.209046 175.000000
17.228529 183.000000
17.248011 145.000000
17.267493 162.000000
17.286976 146.000000
17.306458 150.000000
17.325940 165.000000
17.345423 184.000000
17.364905 168.000000
17.384388 175.000000
17.403870 149.000000
17.423352 186.000000
17.442835 170.000000
17.462317 161.000000
17.481799 153.000000
17.501282 161.000000
17.520764 171.000000
17.540246 151.000000
17.559729 157.000000
17.579211 168.000000
17.598694 148.000000
17.618176 149.000000
17.637658 166.000000
17.657141 137.000000
17.676623 167.000000
17.696105 154.000000
17.715588 158.000000
17.735070 162.000000
17.754553 162.000000
17.774035 158.000000
17.793517 170.000000
17.813000 166.000000
17.832482 145.000000
17.851964 151.000000
17.871447 135.000000
17.890929 149.000000
17.910411 137.000000
17.929894 150.000000
17.949376 148.000000
17.968859 141.000000
17.988341 150.000000
18.007823 153.000000
18.027306 151.000000
18.046788 135.000000
18.066270 150.000000
18.085753 154.000000
18.105235 134.000000
18.124718 144.000000
18.144200 168.000000
18.163682 157.000000
18.183165 160.000000
18.202647 148.000000
18.222129 145.000000
18.241612 167.000000
18.261094 149.000000
18.280576 158.000000
18.300059 135.000000
18.319541 125.000000
18.339024 145.000000
18.358506 133.000000
18.377988 150.000000
18.397471 158.000000
18.416953 143.000000
18.436435 144.000000
18.455918 135.000000
18.475400 149.000000
18.494883 123.000000
18.514365 117.000000
18.533847 158.000000
18.553330 153.000000
18.572812 170.000000
18.592294 169.000000
18.611777 138.000000
18.631259 151.000000
18.650741 157.000000
18.670224 144.000000
18.689706 136.000000
18.709189 173.000000
18.728671 167.000000
18.748153 186.000000
18.767636 193.000000
18.787118 177.000000
18.806600 173.000000
18.826083 159.000000
18.845565 149.000000
18.865048 146.000000
18.884530 140.000000
18.904012 156.000000
18.923495 151.000000
18.942977 131.000000
18.962459 155.000000
18.981942 146.000000
19.001424 143.000000
19.020907 153.000000
19.040389 158.000000
19.059871 130.000000
19.079354 151.000000
19.098836 152.000000
19.118318 144.000000
19.137801 146.000000
19.157283 148.000000
19.176765 133.000000
19.196248 158.000000
19.215730 138.000000
19.235213 147.000000
19.254695 118.000000
19.274177 146.000000
19.293660 138.000000
19.313142 164.000000
19.332624 161.000000
19.352107 146.000000
19.371589 142.000000
19.391072 144.000000
19.410554 153.000000
19.430036 152.000000
19.449519 146.000000
19.469001 143.000000
19.488483 182.000000
19.507966 123.000000
19.527448 132.000000
19.546930 132.000000
19.566413 139.000000
19.585895 155.000000
19.605378 164.000000
19.624860 136.000000
19.644342 132.000000
19.663825 150.000000
19.683307 128.000000
19.702789 127.000000
19.722272 155.000000
19.741754 147.000000
19.761237 126.000000
19.780719 134.000000
19.800201 159.000000
19.819684 152.000000
19.839166 157.000000
19.858648 135.000000
19.878131 153.000000
19.897613 142.000000
19.917095 120.000000
19.936578 148.000000
19.956060 140.000000
19.975543 150.000000
19.995025 136.000000
20.014507 137.000000
20.033990 147.000000
20.053472 141.000000
20.072954 154.000000
20.092437 154.000000
20.111919 160.000000
20.131402 178.000000
20.150884 190.000000
20.170366 189.000000
20.189849 192.000000
20.209331 180.000000
20.228813 207.000000
20.248296 187.000000
20.267778 173.000000
20.287260 175.000000
20.306743 211.000000
20.326225 195.000000
20.345708 161.000000
20.365190 197.000000
20.384672 194.000000
20.404155 170.000000
20.423637 201.000000
20.443119 192.000000
20.462602 211.000000
20.482084 207.000000
20.501567 204.000000
20.521049 221.000000
20.540531 197.000000
20.560014 233.000000
20.579496 228.000000
20.598978 235.000000
20.618461 208.000000
20.637943 234.000000
20.657426 296.000000
20.676908 327.000000
20.696390 396.000000
20.715873 616.000000
20.735355 1100.000000
20.754837 2042.000000
20.774320 3759.000000
20.793802 6405.000000
20.813284 10946.000000
20.832767 14121.000000
20.852249 11818.000000
20.871732 8961.000000
20.891214 6792.000000
20.910696 3865.000000
20.930179 1521.000000
20.949661 669.000000
20.969143 446.000000
20.988626 369.000000
21.008108 297.000000
21.027591 258.000000
21.047073 219.000000
21.066555 243.000000
21.086038 229.000000
21.105520 211.000000
21.125002 252.000000
21.144485 187.000000
21.163967 197.000000
21.183449 199.000000
21.202932 196.000000
21.222414 168.000000
21.241897 168.000000
21.261379 159.000000
21.280861 168.000000
21.300344 187.000000
21.319826 173.000000
21.339308 173.000000
21.358791 182.000000
21.378273 173.000000
21.397756 163.000000
21.417238 174.000000
21.436720 168.000000
21.456203 160.000000
21.475685 157.000000
21.495167 154.000000
21.514650 175.000000
21.534132 169.000000
21.553614 159.000000
21.573097 158.000000
21.592579 163.000000
21.612062 163.000000
21.631544 158.000000
21.651026 180.000000
21.670509 161.000000
21.689991 157.000000
21.709473 149.000000
21.728956 172.000000
21.748438 177.000000
21.767921 147.000000
21.787403 150.000000
21.806885 139.000000
21.826368 169.000000
21.845850 155.000000
21.865332 158.000000
21.884815 133.000000
21.904297 153.000000
21.923779 153.000000
21.943262 152.000000
21.962744 155.000000
21.982227 176.000000
22.001709 169.000000
22.021191 143.000000
22.040674 174.000000
22.060156 158.000000
22.079638 155.000000
22.099121 175.000000
22.118603 175.000000
22.138086 138.000000
22.157568 138.000000
22.177050 163.000000
22.196533 142.000000
22.216015 141.000000
22.235497 154.000000
22.254980 160.000000
22.274462 147.000000
22.293945 156.000000
22.313427 156.000000
22.332909 133.000000
22.352392 156.000000
22.371874 136.000000
22.391356 144.000000
22.410839 141.000000
22.430321 146.000000
22.449803 121.000000
22.469286 160.000000
22.488768 143.000000
22.508251 121.000000
22.527733 134.000000
22.547215 150.000000
22.566698 146.000000
22.586180 132.000000
22.605662 166.000000
22.625145 128.000000
22.644627 136.000000
22.664110 151.000000
22.683592 146.000000
22.703074 145.000000
22.722557 151.000000
22.742039 153.000000
22.761521 152.000000
22.781004 144.000000
22.800486 118.000000
22.819968 146.000000
22.839451 147.000000
22.858933 152.000000
22.878416 139.000000
22.897898 130.000000
22.917380 135.000000
22.936863 134.000000
22.956345 136.000000
22.975827 152.000000
22.995310 146.000000
23.014792 145.000000
23.034275 164.000000
23.053757 145.000000
23.073239 158.000000
23.092722 152.000000
23.112204 142.000000
23.131686 148.000000
23.151169 142.000000
23.170651 126.000000
23.190133 163.000000
23.209616 143.000000
23.229098 125.000000
23.248581 127.000000
23.268063 139.000000
23.287545 153.000000
23.307028 149.000000
23.326510 121.000000
23.345992 127.000000
23.365475 156.000000
23.384957 137.000000
23.404440 137.000000
23.423922 136.000000
23.443404 131.000000
23.462887 143.000000
23.482369 150.000000
23.501851 131.000000
23.521334 128.000000
23.540816 136.000000
23.560298 145.000000
23.579781 132.000000
23.599263 135.000000
23.618746 125.000000
23.638228 138.000000
23.657710 148.000000
23.677193 130.000000
23.696675 117.000000
23.716157 142.000000
23.735640 157.000000
23.755122 132.000000
23.774605 148.000000
23.794087 144.000000
23.813569 135.000000
23.833052 151.000000
23.852534 155.000000
23.872016 140.000000
23.891499 126.000000
23.910981 149.000000
23.930463 172.000000
23.949946 176.000000
23.969428 186.000000
23.988911 256.000000
24.008393 274.000000
24.027875 253.000000
24.047358 166.000000
24.066840 175.000000
24.086322 136.000000
24.105805 146.000000
24.125287 149.000000
24.144770 144.000000
24.164252 129.000000
24.183734 153.000000
24.203217 137.000000
24.222699 129.000000
24.242181 130.000000
24.261664 144.000000
24.281146 135.000000
24.300629 124.000000
24.320111 145.000000
24.339593 135.000000
24.359076 136.000000
24.378558 141.000000
24.398040 129.000000
24.417523 128.000000
24.437005 142.000000
24.456487 121.000000
24.475970 123.000000
24.495452 132.000000
24.514935 143.000000
24.534417 131.000000
24.553899 161.000000
24.573382 139.000000
24.592864 126.000000
24.612346 141.000000
24.631829 130.000000
24.651311 145.000000
24.670794 151.000000
24.690276 155.000000
24.709758 128.000000
24.729241 103.000000
24.748723 119.000000
24.768205 116.000000
24.787688 151.000000
24.807170 118.000000
24.826652 134.000000
24.846135 133.000000
24.865617 118.000000
24.885100 140.000000
24.904582 144.000000
24.924064 145.000000
24.943547 122.000000
24.963029 129.000000
24.982511 132.000000
25.001994 131.000000
25.021476 140.000000
25.040959 123.000000
25.060441 128.000000
25.079923 120.000000
25.099406 120.000000
25.118888 120.000000
25.138370 135.000000
25.157853 138.000000
25.177335 119.000000
25.196817 104.000000
25.216300 120.000000
25.235782 146.000000
25.255265 123.000000
25.274747 125.000000
25.294229 137.000000
25.313712 115.000000
25.333194 131.000000
25.352676 125.000000
25.372159 123.000000
25.391641 134.000000
25.411124 131.000000
25.430606 124.000000
25.450088 125.000000
25.469571 141.000000
25.489053 135.000000
25.508535 130.000000
25.528018 115.000000
25.547500 156.000000
25.566982 132.000000
25.586465 119.000000
25.605947 121.000000
25.625430 127.000000
25.644912 166.000000
25.664394 176.000000
25.683877 192.000000
25.703359 235.000000
25.722841 234.000000
25.742324 251.000000
25.761806 242.000000
25.781289 220.000000
25.800771 259.000000
25.820253 267.000000
25.839736 276.000000
25.859218 250.000000
25.878700 284.000000
25.898183 253.000000
25.917665 280.000000
25.937148 242.000000
25.956630 251.000000
25.976112 261.000000
25.995595 267.000000
26.015077 289.000000
26.034559 232.000000
26.054042 268.000000
26.073524 279.000000
26.093006 293.000000
26.112489 281.000000
26.131971 284.000000
26.151454 279.000000
26.170936 283.000000
26.190418 342.000000
26.209901 303.000000
26.229383 336.000000
26.248865 351.000000
26.268348 371.000000
26.287830 439.000000
26.307313 435.000000
26.326795 448.000000
26.346277 468.000000
26.365760 490.000000
26.385242 532.000000
26.404724 586.000000
26.424207 697.000000
26.443689 842.000000
26.463171 1143.000000
26.482654 1564.000000
26.502136 2527.000000
26.521619 4538.000000
26.541101 7721.000000
26.560583 13546.000000
26.580066 24077.000000
26.599548 35957.000000
26.619030 46459.000000
26.638513 42887.000000
26.657995 27885.000000
26.677478 23600.000000
26.696960 22322.000000
26.716442 12893.000000
26.735925 4584.000000
26.755407 1993.000000
26.774889 1278.000000
26.794372 996.000000
26.813854 792.000000
26.833336 725.000000
26.852819 562.000000
26.872301 607.000000
26.891784 492.000000
26.911266 445.000000
26.930748 392.000000
26.950231 413.000000
26.969713 317.000000
26.989195 353.000000
27.008678 334.000000
27.028160 341.000000
27.047643 273.000000
27.067125 303.000000
27.086607 269.000000
27.106090 272.000000
27.125572 259.000000
27.145054 232.000000
27.164537 270.000000
27.184019 258.000000
27.203501 257.000000
27.222984 213.000000
27.242466 238.000000
27.261949 230.000000
27.281431 247.000000
27.300913 232.000000
27.320396 232.000000
27.339878 228.000000
27.359360 215.000000
27.378843 225.000000
27.398325 212.000000
27.417808 216.000000
27.437290 211.000000
27.456772 184.000000
27.476255 193.000000
27.495737 204.000000
27.515219 183.000000
27.534702 199.000000
27.554184 218.000000
27.573667 204.000000
27.593149 185.000000
27.612631 203.000000
27.632114 184.000000
27.651596 198.000000
27.671078 198.000000
27.690561 229.000000
27.710043 190.000000
27.729525 190.000000
27.749008 188.000000
27.768490 200.000000
27.787973 184.000000
27.807455 200.000000
27.826937 202.000000
27.846420 199.000000
27.865902 204.000000
27.885384 180.000000
27.904867 171.000000
27.924349 203.000000
27.943832 198.000000
27.963314 192.000000
27.982796 194.000000
28.002279 212.000000
28.021761 175.000000
28.041243 174.000000
28.060726 193.000000
28.080208 201.000000
28.099690 160.000000
28.119173 158.000000
28.138655 168.000000
28.158138 174.000000
28.177620 167.000000
28.197102 173.000000
28.216585 161.000000
28.236067 185.000000
28.255549 163.000000
28.275032 160.000000
28.294514 177.000000
28.313997 182.000000
28.333479 169.000000
28.352961 172.000000
28.372444 161.000000
28.391926 196.000000
28.411408 173.000000
28.430891 178.000000
28.450373 173.000000
28.469855 151.000000
28.489338 174.000000
28.508820 182.000000
28.528303 168.000000
28.547785 184.000000
28.567267 146.000000
28.586750 172.000000
28.606232 160.000000
28.625714 183.000000
28.645197 172.000000
28.664679 179.000000
28.684162 177.000000
28.703644 180.000000
28.723126 169.000000
28.742609 134.000000
28.762091 141.000000
28.781573 172.000000
28.801056 178.000000
28.820538 158.000000
28.840020 155.000000
28.859503 148.000000
28.878985 144.000000
28.898468 151.000000
28.917950 158.000000
28.937432 162.000000
28.956915 137.000000
28.976397 174.000000
28.995879 176.000000
29.015362 144.000000
29.034844 142.000000
29.054327 163.000000
29.073809 156.000000
29.093291 151.000000
29.112774 136.000000
29.132256 133.000000
29.151738 172.000000
29.171221 155.000000
29.190703 170.000000
29.210185 155.000000
29.229668 130.000000
29.249150 155.000000
29.268633 146.000000
29.288115 172.000000
29.307597 165.000000
29.327080 143.000000
29.346562 162.000000
29.366044 162.000000
29.385527 192.000000
29.405009 174.000000
29.424492 196.000000
29.443974 156.000000
29.463456 157.000000
29.482939 157.000000
29.502421 148.000000
29.521903 160.000000
29.541386 148.000000
29.560868 142.000000
29.580351 146.000000
29.599833 141.000000
29.619315 158.000000
29.638798 170.000000
29.658280 119.000000
29.677762 114.000000
29.697245 144.000000
29.716727 136.000000
29.736209 154.000000
29.755692 126.000000
29.775174 125.000000
29.794657 115.000000
29.814139 140.000000
29.833621 133.000000
29.853104 149.000000
29.872586 153.000000
29.892068 140.000000
29.911551 138.000000
29.931033 144.000000
29.950516 132.000000
29.969998 134.000000
29.989480 139.000000
30.008963 135.000000
30.028445 138.000000
30.047927 162.000000
30.067410 158.000000
30.086892 143.000000
30.106374 110.000000
30.125857 143.000000
30.145339 157.000000
30.164822 127.000000
30.184304 128.000000
30.203786 139.000000
30.223269 114.000000
30.242751 135.000000
30.262233 123.000000
30.281716 143.000000
30.301198 132.000000
30.320681 140.000000
30.340163 120.000000
30.359645 127.000000
30.379128 128.000000
30.398610 138.000000
30.418092 132.000000
30.437575 124.000000
30.457057 139.000000
30.476539 146.000000
30.496022 115.000000
30.515504 128.000000
30.534987 136.000000
30.554469 121.000000
30.573951 121.000000
30.593434 136.000000
30.612916 143.000000
30.632398 129.000000
30.651881 127.000000
30.671363 131.000000
30.690846 121.000000
30.710328 134.000000
30.729810 120.000000
30.749293 133.000000
30.768775 144.000000
30.788257 149.000000
30.807740 132.000000
30.827222 132.000000
30.846704 149.000000
30.866187 127.000000
30.885669 138.000000
30.905152 117.000000
30.924634 115.000000
30.944116 140.000000
30.963599 104.000000
30.983081 141.000000
31.002563 122.000000
31.022046 119.000000
31.041528 150.000000
31.061011 120.000000
31.080493 131.000000
31.099975 127.000000
31.119458 108.000000
31.138940 147.000000
31.158422 134.000000
31.177905 142.000000
31.197387 129.000000
31.216870 137.000000
31.236352 115.000000
31.255834 132.000000
31.275317 120.000000
31.294799 124.000000
31.314281 132.000000
31.333764 116.000000
31.353246 137.000000
31.372728 116.000000
31.392211 124.000000
31.411693 127.000000
31.431176 118.000000
31.450658 135.000000
31.470140 133.000000
31.489623 135.000000
31.509105 123.000000
31.528587 126.000000
31.548070 118.000000
31.567552 133.000000
31.587035 122.000000
31.606517 124.000000
31.625999 132.000000
31.645482 119.000000
31.664964 110.000000
31.684446 123.000000
31.703929 109.000000
31.723411 127.000000
31.742893 143.000000
31.762376 112.000000
31.781858 132.000000
31.801341 113.000000
31.820823 112.000000
31.840305 119.000000
31.859788 116.000000
31.879270 120.000000
31.898752 143.000000
31.918235 113.000000
31.937717 144.000000
31.957200 139.000000
31.976682 126.000000
31.996164 118.000000
32.015647 126.000000
32.035129 126.000000
32.054611 136.000000
32.074094 104.000000
32.093576 136.000000
32.113058 116.000000
32.132541 99.000000
32.152023 99.000000
32.171506 116.000000
32.190988 106.000000
32.210470 102.000000
32.229953 131.000000
32.249435 111.000000
32.268917 126.000000
32.288400 106.000000
32.307882 129.000000
32.327365 109.000000
32.346847 118.000000
32.366329 102.000000
32.385812 114.000000
32.405294 112.000000
32.424776 124.000000
32.444259 95.000000
32.463741 93.000000
32.483223 100.000000
32.502706 96.000000
32.522188 99.000000
32.541671 100.000000
32.561153 121.000000
32.580635 120.000000
32.600118 112.000000
32.619600 110.000000
32.639082 110.000000
32.658565 110.000000
32.678047 103.000000
32.697530 112.000000
32.717012 118.000000
32.736494 108.000000
32.755977 123.000000
32.775459 98.000000
32.794941 114.000000
32.814424 139.000000
32.833906 118.000000
32.853389 93.000000
32.872871 120.000000
32.892353 126.000000
32.911836 111.000000
32.931318 121.000000
32.950800 94.000000
32.970283 112.000000
32.989765 107.000000
33.009247 113.000000
33.028730 92.000000
33.048212 113.000000
33.067695 116.000000
33.087177 121.000000
33.106659 120.000000
33.126142 123.000000
33.145624 100.000000
33.165106 105.000000
33.184589 106.000000
33.204071 111.000000
33.223554 101.000000
33.243036 89.000000
33.262518 108.000000
33.282001 96.000000
33.301483 104.000000
33.320965 134.000000
33.340448 114.000000
33.359930 120.000000
33.379412 115.000000
33.398895 85.000000
33.418377 100.000000
33.437860 110.000000
33.457342 109.000000
33.476824 95.000000
33.496307 131.000000
33.515789 90.000000
33.535271 112.000000
33.554754 102.000000
33.574236 106.000000
33.593719 108.000000
33.613201 110.000000
33.632683 104.000000
33.652166 110.000000
33.671648 115.000000
33.691130 106.000000
33.710613 127.000000
33.730095 96.000000
33.749577 109.000000
33.769060 99.000000
33.788542 100.000000
33.808025 119.000000
33.827507 98.000000
33.846989 107.000000
33.866472 107.000000
33.885954 109.000000
33.905436 99.000000
33.924919 96.000000
33.944401 118.000000
33.963884 100.000000
33.983366 111.000000
34.002848 101.000000
34.022331 99.000000
34.041813 111.000000
34.061295 112.000000
34.080778 107.000000
34.100260 106.000000
34.119742 96.000000
34.139225 104.000000
34.158707 97.000000
34.178190 85.000000
34.197672 90.000000
34.217154 97.000000
34.236637 101.000000
34.256119 112.000000
34.275601 122.000000
34.295084 101.000000
34.314566 104.000000
34.334049 95.000000
34.353531 110.000000
34.373013 107.000000
34.392496 98.000000
34.411978 104.000000
34.431460 105.000000
34.450943 107.000000
34.470425 95.000000
34.489908 87.000000
34.509390 90.000000
34.528872 97.000000
34.548355 88.000000
34.567837 98.000000
34.587319 113.000000
34.606802 101.000000
34.626284 109.000000
34.645766 112.000000
34.665249 110.000000
34.684731 95.000000
34.704214 112.000000
34.723696 101.000000
34.743178 104.000000
34.762661 112.000000
34.782143 95.000000
34.801625 118.000000
34.821108 96.000000
34.840590 108.000000
34.860073 102.000000
34.879555 118.000000
34.899037 107.000000
34.918520 118.000000
34.938002 110.000000
34.957484 103.000000
34.976967 116.000000
34.996449 107.000000
35.015931 114.000000
35.035414 106.000000
35.054896 95.000000
35.074379 98.000000
35.093861 97.000000
35.113343 88.000000
35.132826 102.000000
35.152308 93.000000
35.171790 88.000000
35.191273 120.000000
35.210755 103.000000
35.230238 111.000000
35.249720 106.000000
35.269202 119.000000
35.288685 105.000000
35.308167 106.000000
35.327649 126.000000
35.347132 121.000000
35.366614 105.000000
35.386096 114.000000
35.405579 116.000000
35.425061 113.000000
35.444544 129.000000
35.464026 108.000000
35.483508 95.000000
35.502991 108.000000
35.522473 100.000000
35.541955 116.000000
35.561438 95.000000
35.580920 101.000000
35.600403 114.000000
35.619885 107.000000
35.639367 97.000000
35.658850 97.000000
35.678332 93.000000
35.697814 113.000000
35.717297 120.000000
35.736779 113.000000
35.756261 117.000000
35.775744 106.000000
35.795226 140.000000
35.814709 98.000000
35.834191 100.000000
35.853673 116.000000
35.873156 107.000000
35.892638 124.000000
35.912120 116.000000
35.931603 111.000000
35.951085 123.000000
35.970568 96.000000
35.990050 96.000000
36.009532 114.000000
36.029015 112.000000
36.048497 98.000000
36.067979 117.000000
36.087462 110.000000
36.106944 106.000000
36.126426 114.000000
36.145909 128.000000
36.165391 108.000000
36.184874 119.000000
36.204356 136.000000
36.223838 119.000000
36.243321 119.000000
36.262803 136.000000
36.282285 144.000000
36.301768 150.000000
36.321250 131.000000
36.340733 163.000000
36.360215 166.000000
36.379697 195.000000
36.399180 282.000000
36.418662 358.000000
36.438144 523.000000
36.457627 898.000000
36.477109 1566.000000
36.496592 2291.000000
36.516074 2954.000000
36.535556 3301.000000
36.555039 2457.000000
36.574521 1677.000000
36.594003 1553.000000
36.613486 1653.000000
36.632968 1630.000000
36.652450 1110.000000
36.671933 521.000000
36.691415 289.000000
36.710898 228.000000
36.730380 179.000000
36.749862 166.000000
36.769345 162.000000
36.788827 141.000000
36.808309 142.000000
36.827792 138.000000
36.847274 128.000000
36.866757 114.000000
36.886239 118.000000
36.905721 129.000000
36.925204 110.000000
36.944686 97.000000
36.964168 128.000000
36.983651 116.000000
37.003133 112.000000
37.022615 106.000000
37.042098 120.000000
37.061580 104.000000
37.081063 105.000000
37.100545 87.000000
37.120027 106.000000
37.139510 112.000000
37.158992 102.000000
37.178474 123.000000
37.197957 90.000000
37.217439 94.000000
37.236922 85.000000
37.256404 106.000000
37.275886 101.000000
37.295369 109.000000
37.314851 111.000000
37.334333 100.000000
37.353816 88.000000
37.373298 90.000000
37.392780 95.000000
37.412263 99.000000
37.431745 100.000000
37.451228 102.000000
37.470710 99.000000
37.490192 96.000000
37.509675 93.000000
37.529157 92.000000
37.548639 97.000000
37.568122 99.000000
37.587604 99.000000
37.607087 113.000000
37.626569 99.000000
37.646051 91.000000
37.665534 107.000000
37.685016 75.000000
37.704498 90.000000
37.723981 108.000000
37.743463 109.000000
37.762945 103.000000
37.782428 88.000000
37.801910 101.000000
37.821393 69.000000
37.840875 91.000000
37.860357 82.000000
37.879840 112.000000
37.899322 99.000000
37.918804 96.000000
37.938287 85.000000
37.957769 102.000000
37.977252 94.000000
37.996734 84.000000
38.016216 111.000000
38.035699 83.000000
38.055181 86.000000
38.074663 101.000000
38.094146 115.000000
38.113628 128.000000
38.133111 114.000000
38.152593 97.000000
38.172075 100.000000
38.191558 122.000000
38.211040 112.000000
38.230522 100.000000
38.250005 94.000000
38.269487 107.000000
38.288969 93.000000
38.308452 104.000000
38.327934 110.000000
38.347417 99.000000
38.366899 118.000000
38.386381 96.000000
38.405864 111.000000
38.425346 88.000000
38.444828 111.000000
38.464311 119.000000
38.483793 99.000000
38.503276 96.000000
38.522758 97.000000
38.542240 90.000000
38.561723 86.000000
38.581205 91.000000
38.600687 101.000000
38.620170 102.000000
38.639652 83.000000
38.659134 91.000000
38.678617 114.000000
38.698099 109.000000
38.717582 91.000000
38.737064 85.000000
38.756546 102.000000
38.776029 115.000000
38.795511 128.000000
38.814993 112.000000
38.834476 99.000000
38.853958 103.000000
38.873441 100.000000
38.892923 120.000000
38.912405 115.000000
38.931888 107.000000
38.951370 114.000000
38.970852 114.000000
38.990335 116.000000
39.009817 111.000000
39.029299 114.000000
39.048782 121.000000
39.068264 112.000000
39.087747 121.000000
39.107229 106.000000
39.126711 119.000000
39.146194 117.000000
39.165676 116.000000
39.185158 127.000000
39.204641 137.000000
39.224123 135.000000
39.243606 149.000000
39.263088 171.000000
39.282570 182.000000
39.302053 155.000000
39.321535 235.000000
39.341017 335.000000
39.360500 532.000000
39.379982 911.000000
39.399464 1247.000000
39.418947 1983.000000
39.438429 2877.000000
39.457912 2893.000000
39.477394 2131.000000
39.496876 1325.000000
39.516359 1202.000000
39.535841 1480.000000
39.555323 1587.000000
39.574806 1145.000000
39.594288 617.000000
39.613771 310.000000
39.633253 201.000000
39.652735 160.000000
39.672218 158.000000
39.691700 161.000000
39.711182 142.000000
39.730665 140.000000
39.750147 115.000000
39.769630 121.000000
39.789112 109.000000
39.808594 106.000000
39.828077 91.000000
39.847559 96.000000
39.867041 122.000000
39.886524 106.000000
39.906006 103.000000
39.925488 123.000000
39.944971 111.000000
39.964453 101.000000
39.983936 129.000000
40.003418 112.000000
40.022900 142.000000
40.042383 124.000000
40.061865 137.000000
40.081347 169.000000
40.100830 169.000000
40.120312 165.000000
40.139795 165.000000
40.159277 225.000000
40.178759 320.000000
40.198242 414.000000
40.217724 611.000000
40.237206 1005.000000
40.256689 1302.000000
40.276171 1511.000000
40.295653 1118.000000
40.315136 748.000000
40.334618 580.000000
40.354101 710.000000
40.373583 840.000000
40.393065 665.000000
40.412548 422.000000
40.432030 252.000000
40.451512 150.000000
40.470995 143.000000
40.490477 142.000000
40.509960 110.000000
40.529442 105.000000
40.548924 113.000000
40.568407 101.000000
40.587889 111.000000
40.607371 84.000000
40.626854 112.000000
40.646336 96.000000
40.665818 102.000000
40.685301 103.000000
40.704783 100.000000
40.724266 109.000000
40.743748 91.000000
40.763230 105.000000
40.782713 117.000000
40.802195 109.000000
40.821677 87.000000
40.841160 98.000000
40.860642 91.000000
40.880125 102.000000
40.899607 100.000000
40.919089 99.000000
40.938572 100.000000
40.958054 91.000000
40.977536 113.000000
40.997019 100.000000
41.016501 108.000000
41.035983 104.000000
41.055466 100.000000
41.074948 105.000000
41.094431 98.000000
41.113913 94.000000
41.133395 91.000000
41.152878 113.000000
41.172360 103.000000
41.191842 112.000000
41.211325 109.000000
41.230807 118.000000
41.250290 112.000000
41.269772 104.000000
41.289254 99.000000
41.308737 93.000000
41.328219 103.000000
41.347701 104.000000
41.367184 103.000000
41.386666 110.000000
41.406149 98.000000
41.425631 117.000000
41.445113 91.000000
41.464596 67.000000
41.484078 112.000000
41.503560 97.000000
41.523043 105.000000
41.542525 98.000000
41.562007 106.000000
41.581490 104.000000
41.600972 102.000000
41.620455 96.000000
41.639937 87.000000
41.659419 105.000000
41.678902 78.000000
41.698384 97.000000
41.717866 114.000000
41.737349 112.000000
41.756831 126.000000
41.776314 92.000000
41.795796 94.000000
41.815278 98.000000
41.834761 123.000000
41.854243 91.000000
41.873725 108.000000
41.893208 130.000000
41.912690 127.000000
41.932172 114.000000
41.951655 104.000000
41.971137 118.000000
41.990620 107.000000
42.010102 109.000000
42.029584 117.000000
42.049067 103.000000
42.068549 116.000000
42.088031 108.000000
42.107514 98.000000
42.126996 104.000000
42.146479 115.000000
42.165961 118.000000
42.185443 138.000000
42.204926 141.000000
42.224408 152.000000
42.243890 174.000000
42.263373 192.000000
42.282855 218.000000
42.302337 263.000000
42.321820 372.000000
42.341302 587.000000
42.360785 901.000000
42.380267 1553.000000
42.399749 2468.000000
42.419232 3446.000000
42.438714 3512.000000
42.458196 2599.000000
42.477679 1768.000000
42.497161 1424.000000
42.516644 1686.000000
42.536126 1967.000000
42.555608 1764.000000
42.575091 1051.000000
42.594573 634.000000
42.614055 376.000000
42.633538 236.000000
42.653020 209.000000
42.672502 162.000000
42.691985 148.000000
42.711467 139.000000
42.730950 138.000000
42.750432 151.000000
42.769914 106.000000
42.789397 109.000000
42.808879 122.000000
42.828361 129.000000
42.847844 103.000000
42.867326 102.000000
42.886809 107.000000
42.906291 106.000000
42.925773 116.000000
42.945256 119.000000
42.964738 124.000000
42.984220 96.000000
43.003703 104.000000
43.023185 105.000000
43.042667 117.000000
43.062150 90.000000
43.081632 100.000000
43.101115 84.000000
43.120597 101.000000
43.140079 113.000000
43.159562 102.000000
43.179044 91.000000
43.198526 101.000000
43.218009 102.000000
43.237491 99.000000
43.256974 95.000000
43.276456 96.000000
43.295938 101.000000
43.315421 95.000000
43.334903 93.000000
43.354385 118.000000
43.373868 109.000000
43.393350 94.000000
43.412833 84.000000
43.432315 116.000000
43.451797 100.000000
43.471280 105.000000
43.490762 98.000000
43.510244 91.000000
43.529727 77.000000
43.549209 86.000000
43.568691 88.000000
43.588174 80.000000
43.607656 88.000000
43.627139 107.000000
43.646621 90.000000
43.666103 97.000000
43.685586 96.000000
43.705068 77.000000
43.724550 88.000000
43.744033 92.000000
43.763515 91.000000
43.782998 110.000000
43.802480 82.000000
43.821962 88.000000
43.841445 94.000000
43.860927 90.000000
43.880409 110.000000
43.899892 96.000000
43.919374 106.000000
43.938856 104.000000
43.958339 96.000000
43.977821 87.000000
43.997304 89.000000
44.016786 82.000000
44.036268 93.000000
44.055751 77.000000
44.075233 85.000000
44.094715 96.000000
44.114198 86.000000
44.133680 87.000000
44.153163 90.000000
44.172645 98.000000
44.192127 113.000000
44.211610 84.000000
44.231092 77.000000
44.250574 77.000000
44.270057 93.000000
44.289539 75.000000
44.309021 99.000000
44.328504 71.000000
44.347986 81.000000
44.367469 88.000000
44.386951 101.000000
44.406433 80.000000
44.425916 103.000000
44.445398 97.000000
44.464880 92.000000
44.484363 103.000000
44.503845 102.000000
44.523328 85.000000
44.542810 97.000000
44.562292 86.000000
44.581775 80.000000
44.601257 95.000000
44.620739 106.000000
44.640222 96.000000
44.659704 94.000000
44.679186 122.000000
44.698669 84.000000
44.718151 101.000000
44.737634 98.000000
44.757116 77.000000
44.776598 92.000000
44.796081 80.000000
44.815563 97.000000
44.835045 102.000000
44.854528 86.000000
44.874010 87.000000
44.893493 93.000000
44.912975 108.000000
44.932457 101.000000
44.951940 102.000000
44.971422 90.000000
44.990904 110.000000
45.010387 92.000000
45.029869 101.000000
45.049352 93.000000
45.068834 80.000000
45.088316 91.000000
45.107799 62.000000
45.127281 84.000000
45.146763 83.000000
45.166246 100.000000
45.185728 76.000000
45.205210 87.000000
45.224693 101.000000
45.244175 89.000000
45.263658 93.000000
45.283140 97.000000
45.302622 98.000000
45.322105 94.000000
45.341587 84.000000
45.361069 95.000000
45.380552 88.000000
45.400034 99.000000
45.419517 80.000000
45.438999 94.000000
45.458481 119.000000
45.477964 106.000000
45.497446 91.000000
45.516928 115.000000
45.536411 95.000000
45.555893 115.000000
45.575375 121.000000
45.594858 115.000000
45.614340 143.000000
45.633823 149.000000
45.653305 191.000000
45.672787 238.000000
45.692270 432.000000
45.711752 532.000000
45.731234 758.000000
45.750717 982.000000
45.770199 1144.000000
45.789682 1024.000000
45.809164 789.000000
45.828646 553.000000
45.848129 538.000000
45.867611 577.000000
45.887093 624.000000
45.906576 540.000000
45.926058 443.000000
45.945540 250.000000
45.965023 153.000000
45.984505 143.000000
46.003988 113.000000
46.023470 113.000000
46.042952 81.000000
46.062435 101.000000
46.081917 85.000000
46.101399 122.000000
46.120882 115.000000
46.140364 104.000000
46.159847 85.000000
46.179329 109.000000
46.198811 87.000000
46.218294 110.000000
46.237776 86.000000
46.257258 98.000000
46.276741 113.000000
46.296223 89.000000
46.315705 90.000000
46.335188 92.000000
46.354670 83.000000
46.374153 77.000000
46.393635 96.000000
46.413117 100.000000
46.432600 110.000000
46.452082 95.000000
46.471564 90.000000
46.491047 74.000000
46.510529 87.000000
46.530012 85.000000
46.549494 85.000000
46.568976 88.000000
46.588459 95.000000
46.607941 92.000000
46.627423 75.000000
46.646906 117.000000
46.666388 98.000000
46.685871 86.000000
46.705353 86.000000
46.724835 90.000000
46.744318 83.000000
46.763800 92.000000
46.783282 92.000000
46.802765 78.000000
46.822247 79.000000
46.841729 78.000000
46.861212 80.000000
46.880694 80.000000
46.900177 87.000000
46.919659 71.000000
46.939141 85.000000
46.958624 103.000000
46.978106 97.000000
46.997588 97.000000
47.017071 96.000000
47.036553 81.000000
47.056036 88.000000
47.075518 84.000000
47.095000 98.000000
47.114483 84.000000
47.133965 88.000000
47.153447 85.000000
47.172930 82.000000
47.192412 81.000000
47.211894 72.000000
47.231377 93.000000
47.250859 77.000000
47.270342 70.000000
47.289824 87.000000
47.309306 93.000000
47.328789 96.000000
47.348271 95.000000
47.367753 102.000000
47.387236 106.000000
47.406718 103.000000
47.426201 92.000000
47.445683 114.000000
47.465165 137.000000
47.484648 109.000000
47.504130 135.000000
47.523612 134.000000
47.543095 124.000000
47.562577 105.000000
47.582059 104.000000
47.601542 125.000000
47.621024 125.000000
47.640507 140.000000
47.659989 111.000000
47.679471 95.000000
47.698954 89.000000
47.718436 88.000000
47.737918 89.000000
47.757401 94.000000
47.776883 75.000000
47.796366 90.000000
47.815848 82.000000
47.835330 71.000000
47.854813 102.000000
47.874295 80.000000
47.893777 80.000000
47.913260 108.000000
47.932742 101.000000
47.952224 105.000000
47.971707 87.000000
47.991189 91.000000
48.010672 81.000000
48.030154 73.000000
48.049636 81.000000
48.069119 78.000000
48.088601 93.000000
48.108083 60.000000
48.127566 82.000000
48.147048 82.000000
48.166531 83.000000
48.186013 68.000000
48.205495 104.000000
48.224978 88.000000
48.244460 81.000000
48.263942 76.000000
48.283425 80.000000
48.302907 96.000000
48.322389 100.000000
48.341872 98.000000
48.361354 96.000000
48.380837 91.000000
48.400319 99.000000
48.419801 76.000000
48.439284 80.000000
48.458766 122.000000
48.478248 114.000000
48.497731 91.000000
48.517213 106.000000
48.536696 100.000000
48.556178 84.000000
48.575660 74.000000
48.595143 101.000000
48.614625 102.000000
48.634107 103.000000
48.653590 100.000000
48.673072 90.000000
48.692555 73.000000
48.712037 91.000000
48.731519 86.000000
48.751002 91.000000
48.770484 94.000000
48.789966 79.000000
48.809449 84.000000
48.828931 84.000000
48.848413 89.000000
48.867896 100.000000
48.887378 90.000000
48.906861 86.000000
48.926343 97.000000
48.945825 76.000000
48.965308 84.000000
48.984790 94.000000
49.004272 83.000000
49.023755 71.000000
49.043237 87.000000
49.062720 80.000000
49.082202 102.000000
49.101684 87.000000
49.121167 93.000000
49.140649 71.000000
49.160131 90.000000
49.179614 83.000000
49.199096 90.000000
49.218578 79.000000
49.238061 91.000000
49.257543 90.000000
49.277026 84.000000
49.296508 86.000000
49.315990 85.000000
49.335473 88.000000
49.354955 87.000000
49.374437 93.000000
49.393920 99.000000
49.413402 104.000000
49.432885 87.000000
49.452367 110.000000
49.471849 74.000000
49.491332 86.000000
49.510814 85.000000
49.530296 100.000000
49.549779 108.000000
49.569261 89.000000
49.588743 112.000000
49.608226 91.000000
49.627708 98.000000
49.647191 106.000000
49.666673 104.000000
49.686155 87.000000
49.705638 92.000000
49.725120 108.000000
49.744602 129.000000
49.764085 95.000000
49.783567 108.000000
49.803050 123.000000
49.822532 147.000000
49.842014 153.000000
49.861497 143.000000
49.880979 156.000000
49.900461 183.000000
49.919944 183.000000
49.939426 205.000000
49.958908 247.000000
49.978391 285.000000
49.997873 377.000000
50.017356 584.000000
50.036838 956.000000
50.056320 1622.000000
50.075803 2467.000000
50.095285 3088.000000
50.114767 3308.000000
50.134250 3146.000000
50.153732 2233.000000
50.173215 1520.000000
50.192697 1338.000000
50.212179 1540.000000
50.231662 1773.000000
50.251144 1766.000000
50.270626 1564.000000
50.290109 1045.000000
50.309591 563.000000
50.329074 372.000000
50.348556 243.000000
50.368038 190.000000
50.387521 157.000000
50.407003 158.000000
50.426485 143.000000
50.445968 138.000000
50.465450 129.000000
50.484932 129.000000
50.504415 147.000000
50.523897 151.000000
50.543380 162.000000
50.562862 190.000000
50.582344 276.000000
50.601827 297.000000
50.621309 220.000000
50.640791 182.000000
50.660274 145.000000
50.679756 131.000000
50.699239 170.000000
50.718721 181.000000
50.738203 203.000000
50.757686 160.000000
50.777168 117.000000
50.796650 137.000000
50.816133 120.000000
50.835615 109.000000
50.855097 97.000000
50.874580 102.000000
50.894062 108.000000
50.913545 82.000000
50.933027 84.000000
50.952509 87.000000
50.971992 87.000000
50.991474 96.000000
51.010956 104.000000
51.030439 93.000000
51.049921 94.000000
51.069404 96.000000
51.088886 101.000000
51.108368 104.000000
51.127851 84.000000
51.147333 82.000000
51.166815 75.000000
51.186298 84.000000
51.205780 97.000000
51.225262 80.000000
51.244745 84.000000
51.264227 82.000000
51.283710 78.000000
51.303192 105.000000
51.322674 82.000000
51.342157 78.000000
51.361639 99.000000
51.381121 75.000000
51.400604 63.000000
51.420086 64.000000
51.439569 72.000000
51.459051 90.000000
51.478533 85.000000
51.498016 84.000000
51.517498 82.000000
51.536980 98.000000
51.556463 73.000000
51.575945 79.000000
51.595427 74.000000
51.614910 76.000000
51.634392 79.000000
51.653875 81.000000
51.673357 97.000000
51.692839 84.000000
51.712322 93.000000
51.731804 70.000000
51.751286 74.000000
51.770769 91.000000
51.790251 84.000000
51.809734 85.000000
51.829216 70.000000
51.848698 94.000000
51.868181 78.000000
51.887663 93.000000
51.907145 81.000000
51.926628 79.000000
51.946110 79.000000
51.965593 79.000000
51.985075 82.000000
52.004557 86.000000
52.024040 76.000000
52.043522 83.000000
52.063004 68.000000
52.082487 81.000000
52.101969 85.000000
52.121451 72.000000
52.140934 72.000000
52.160416 89.000000
52.179899 81.000000
52.199381 82.000000
52.218863 86.000000
52.238346 80.000000
52.257828 82.000000
52.277310 89.000000
52.296793 94.000000
52.316275 88.000000
52.335758 67.000000
52.355240 80.000000
52.374722 86.000000
52.394205 67.000000
52.413687 73.000000
52.433169 93.000000
52.452652 86.000000
52.472134 89.000000
52.491616 85.000000
52.511099 84.000000
52.530581 86.000000
52.550064 83.000000
52.569546 85.000000
52.589028 73.000000
52.608511 73.000000
52.627993 78.000000
52.647475 63.000000
52.666958 87.000000
52.686440 84.000000
52.705923 86.000000
52.725405 61.000000
52.744887 69.000000
52.764370 87.000000
52.783852 71.000000
52.803334 74.000000
52.822817 73.000000
52.842299 84.000000
52.861781 74.000000
52.881264 75.000000
52.900746 73.000000
52.920229 77.000000
52.939711 78.000000
52.959193 82.000000
52.978676 95.000000
52.998158 66.000000
53.017640 68.000000
53.037123 82.000000
53.056605 66.000000
53.076088 79.000000
53.095570 79.000000
53.115052 57.000000
53.134535 88.000000
53.154017 82.000000
53.173499 72.000000
53.192982 82.000000
53.212464 68.000000
53.231946 74.000000
53.251429 61.000000
53.270911 80.000000
53.290394 81.000000
53.309876 86.000000
53.329358 64.000000
53.348841 97.000000
53.368323 104.000000
53.387805 92.000000
53.407288 79.000000
53.426770 66.000000
53.446253 82.000000
53.465735 75.000000
53.485217 71.000000
53.504700 81.000000
53.524182 63.000000
53.543664 78.000000
53.563147 109.000000
53.582629 93.000000
53.602112 93.000000
53.621594 91.000000
53.641076 111.000000
53.660559 106.000000
53.680041 99.000000
53.699523 85.000000
53.719006 90.000000
53.738488 82.000000
53.757970 80.000000
53.777453 88.000000
53.796935 86.000000
53.816418 83.000000
53.835900 79.000000
53.855382 85.000000
53.874865 81.000000
53.894347 81.000000
53.913829 85.000000
53.933312 72.000000
53.952794 95.000000
53.972277 92.000000
53.991759 65.000000
54.011241 77.000000
54.030724 75.000000
54.050206 74.000000
54.069688 81.000000
54.089171 71.000000
54.108653 73.000000
54.128135 70.000000
54.147618 84.000000
54.167100 83.000000
54.186583 85.000000
54.206065 77.000000
54.225547 81.000000
54.245030 98.000000
54.264512 76.000000
54.283994 84.000000
54.303477 83.000000
54.322959 81.000000
54.342442 79.000000
54.361924 84.000000
54.381406 81.000000
54.400889 77.000000
54.420371 83.000000
54.439853 90.000000
54.459336 82.000000
54.478818 93.000000
54.498300 119.000000
54.517783 64.000000
54.537265 105.000000
54.556748 98.000000
54.576230 90.000000
54.595712 89.000000
54.615195 113.000000
54.634677 110.000000
54.654159 103.000000
54.673642 117.000000
54.693124 128.000000
54.712607 164.000000
54.732089 199.000000
54.751571 266.000000
54.771054 379.000000
54.790536 524.000000
54.810018 761.000000
54.829501 1005.000000
54.848983 1238.000000
54.868465 1257.000000
54.887948 995.000000
54.907430 634.000000
54.926913 497.000000
54.946395 442.000000
54.965877 537.000000
54.985360 654.000000
55.004842 692.000000
55.024324 594.000000
55.043807 434.000000
55.063289 278.000000
55.082772 200.000000
55.102254 147.000000
55.121736 113.000000
55.141219 116.000000
55.160701 135.000000
55.180183 131.000000
55.199666 157.000000
55.219148 175.000000
55.238630 227.000000
55.258113 296.000000
55.277595 388.000000
55.297078 468.000000
55.316560 463.000000
55.336042 334.000000
55.355525 252.000000
55.375007 200.000000
55.394489 186.000000
55.413972 203.000000
55.433454 261.000000
55.452937 269.000000
55.472419 244.000000
55.491901 188.000000
55.511384 167.000000
55.530866 123.000000
55.550348 109.000000
55.569831 108.000000
55.589313 95.000000
55.608796 92.000000
55.628278 87.000000
55.647760 89.000000
55.667243 97.000000
55.686725 78.000000
55.706207 80.000000
55.725690 93.000000
55.745172 79.000000
55.764654 94.000000
55.784137 94.000000
55.803619 88.000000
55.823102 78.000000
55.842584 78.000000
55.862066 71.000000
55.881549 73.000000
55.901031 64.000000
55.920513 74.000000
55.939996 84.000000
55.959478 73.000000
55.978961 70.000000
55.998443 77.000000
56.017925 67.000000
56.037408 63.000000
56.056890 68.000000
56.076372 84.000000
56.095855 85.000000
56.115337 77.000000
56.134819 64.000000
56.154302 73.000000
56.173784 75.000000
56.193267 61.000000
56.212749 77.000000
56.232231 69.000000
56.251714 81.000000
56.271196 79.000000
56.290678 91.000000
56.310161 60.000000
56.329643 79.000000
56.349126 72.000000
56.368608 82.000000
56.388090 79.000000
56.407573 70.000000
56.427055 83.000000
56.446537 84.000000
56.466020 59.000000
56.485502 82.000000
56.504984 92.000000
56.524467 75.000000
56.543949 66.000000
56.563432 84.000000
56.582914 79.000000
56.602396 64.000000
56.621879 71.000000
56.641361 83.000000
56.660843 70.000000
56.680326 77.000000
56.699808 69.000000
56.719291 85.000000
56.738773 55.000000
56.758255 70.000000
56.777738 82.000000
56.797220 85.000000
56.816702 86.000000
56.836185 67.000000
56.855667 70.000000
56.875149 97.000000
56.894632 67.000000
56.914114 68.000000
56.933597 67.000000
56.953079 75.000000
56.972561 67.000000
56.992044 70.000000
57.011526 69.000000
57.031008 60.000000
57.050491 79.000000
57.069973 74.000000
57.089456 79.000000
57.108938 75.000000
57.128420 89.000000
57.147903 86.000000
57.167385 99.000000
57.186867 135.000000
57.206350 135.000000
57.225832 110.000000
57.245315 102.000000
57.264797 103.000000
57.284279 92.000000
57.303762 86.000000
57.323244 86.000000
57.342726 91.000000
57.362209 110.000000
57.381691 87.000000
57.401173 100.000000
57.420656 88.000000
57.440138 86.000000
57.459621 77.000000
57.479103 68.000000
57.498585 61.000000
57.518068 73.000000
57.537550 88.000000
57.557032 79.000000
57.576515 82.000000
57.595997 83.000000
57.615480 74.000000
57.634962 75.000000
57.654444 79.000000
57.673927 71.000000
57.693409 65.000000
57.712891 85.000000
57.732374 77.000000
57.751856 80.000000
57.771338 70.000000
57.790821 80.000000
57.810303 86.000000
57.829786 85.000000
57.849268 91.000000
57.868750 82.000000
57.888233 68.000000
57.907715 98.000000
57.927197 74.000000
57.946680 87.000000
57.966162 78.000000
57.985645 73.000000
58.005127 66.000000
58.024609 72.000000
58.044092 85.000000
58.063574 76.000000
58.083056 78.000000
58.102539 82.000000
58.122021 72.000000
58.141503 64.000000
58.160986 94.000000
58.180468 75.000000
58.199951 78.000000
58.219433 75.000000
58.238915 77.000000
58.258398 73.000000
58.277880 84.000000
58.297362 76.000000
58.316845 88.000000
58.336327 81.000000
58.355810 82.000000
58.375292 80.000000
58.394774 75.000000
58.414257 87.000000
58.433739 67.000000
58.453221 92.000000
58.472704 89.000000
58.492186 85.000000
58.511668 68.000000
58.531151 61.000000
58.550633 76.000000
58.570116 75.000000
58.589598 85.000000
58.609080 86.000000
58.628563 83.000000
58.648045 83.000000
58.667527 76.000000
58.687010 78.000000
58.706492 81.000000
58.725975 72.000000
58.745457 79.000000
58.764939 81.000000
58.784422 86.000000
58.803904 82.000000
58.823386 65.000000
58.842869 97.000000
58.862351 74.000000
58.881834 67.000000
58.901316 82.000000
58.920798 85.000000
58.940281 102.000000
58.959763 82.000000
58.979245 82.000000
58.998728 76.000000
59.018210 82.000000
59.037692 76.000000
59.057175 84.000000
59.076657 94.000000
59.096140 83.000000
59.115622 70.000000
59.135104 84.000000
59.154587 76.000000
59.174069 69.000000
59.193551 73.000000
59.213034 75.000000
59.232516 79.000000
59.251999 82.000000
59.271481 82.000000
59.290963 91.000000
59.310446 87.000000
59.329928 85.000000
59.349410 98.000000
59.368893 109.000000
59.388375 94.000000
59.407857 96.000000
59.427340 84.000000
59.446822 90.000000
59.466305 89.000000
59.485787 91.000000
59.505269 96.000000
59.524752 91.000000
59.544234 101.000000
59.563716 119.000000
59.583199 109.000000
59.602681 121.000000
59.622164 146.000000
59.641646 136.000000
59.661128 141.000000
59.680611 148.000000
59.700093 156.000000
59.719575 145.000000
59.739058 195.000000
59.758540 192.000000
59.778022 269.000000
59.797505 282.000000
59.816987 415.000000
59.836470 601.000000
59.855952 959.000000
59.875434 1531.000000
59.894917 2356.000000
59.914399 2919.000000
59.933881 3376.000000
59.953364 3084.000000
59.972846 2286.000000
59.992329 1503.000000
60.011811 1100.000000
60.031293 1074.000000
60.050776 1212.000000
60.070258 1452.000000
60.089740 1799.000000
60.109223 1729.000000
60.128705 1365.000000
60.148187 918.000000
60.167670 603.000000
60.187152 397.000000
60.206635 290.000000
60.226117 223.000000
60.245599 180.000000
60.265082 152.000000
60.284564 152.000000
60.304046 148.000000
60.323529 124.000000
60.343011 145.000000
60.362494 103.000000
60.381976 116.000000
60.401458 123.000000
60.420941 117.000000
60.440423 106.000000
60.459905 106.000000
60.479388 107.000000
60.498870 113.000000
60.518352 105.000000
60.537835 93.000000
60.557317 83.000000
60.576800 84.000000
60.596282 89.000000
60.615764 80.000000
60.635247 88.000000
60.654729 94.000000
60.674211 97.000000
60.693694 77.000000
60.713176 86.000000
60.732659 78.000000
60.752141 97.000000
60.771623 93.000000
60.791106 92.000000
60.810588 82.000000
60.830070 86.000000
60.849553 93.000000
60.869035 72.000000
60.888518 84.000000
60.908000 81.000000
60.927482 76.000000
60.946965 89.000000
60.966447 83.000000
60.985929 74.000000
61.005412 87.000000
61.024894 83.000000
61.044376 77.000000
61.063859 61.000000
61.083341 66.000000
61.102824 85.000000
61.122306 64.000000
61.141788 89.000000
61.161271 68.000000
61.180753 91.000000
61.200235 76.000000
61.219718 77.000000
61.239200 78.000000
61.258683 82.000000
61.278165 85.000000
61.297647 80.000000
61.317130 62.000000
61.336612 64.000000
61.356094 79.000000
61.375577 77.000000
61.395059 63.000000
61.414541 73.000000
61.434024 79.000000
61.453506 76.000000
61.472989 63.000000
61.492471 69.000000
61.511953 79.000000
61.531436 78.000000
61.550918 86.000000
61.570400 83.000000
61.589883 85.000000
61.609365 63.000000
61.628848 78.000000
61.648330 77.000000
61.667812 64.000000
61.687295 72.000000
61.706777 73.000000
61.726259 75.000000
61.745742 82.000000
61.765224 72.000000
61.784706 61.000000
61.804189 70.000000
61.823671 84.000000
61.843154 75.000000
61.862636 66.000000
61.882118 69.000000
61.901601 71.000000
61.921083 71.000000
61.940565 65.000000
61.960048 69.000000
61.979530 72.000000
61.999013 87.000000
62.018495 63.000000
62.037977 65.000000
62.057460 79.000000
62.076942 65.000000
62.096424 53.000000
62.115907 73.000000
62.135389 76.000000
62.154871 63.000000
62.174354 76.000000
62.193836 85.000000
62.213319 81.000000
62.232801 75.000000
62.252283 80.000000
62.271766 59.000000
62.291248 77.000000
62.310730 54.000000
62.330213 75.000000
62.349695 57.000000
62.369178 85.000000
62.388660 101.000000
62.408142 88.000000
62.427625 64.000000
62.447107 72.000000
62.466589 69.000000
62.486072 78.000000
62.505554 78.000000
62.525037 66.000000
62.544519 77.000000
62.564001 70.000000
62.583484 64.000000
62.602966 88.000000
62.622448 78.000000
62.641931 75.000000
62.661413 66.000000
62.680895 74.000000
62.700378 63.000000
62.719860 61.000000
62.739343 69.000000
62.758825 69.000000
62.778307 73.000000
62.797790 65.000000
62.817272 61.000000
62.836754 77.000000
62.856237 77.000000
62.875719 63.000000
62.895202 62.000000
62.914684 76.000000
62.934166 55.000000
62.953649 69.000000
62.973131 78.000000
62.992613 68.000000
63.012096 65.000000
63.031578 59.000000
63.051060 67.000000
63.070543 74.000000
63.090025 77.000000
63.109508 60.000000
63.128990 60.000000
63.148472 81.000000
63.167955 68.000000
63.187437 67.000000
63.206919 75.000000
63.226402 89.000000
63.245884 58.000000
63.265367 68.000000
63.284849 78.000000
63.304331 72.000000
63.323814 63.000000
63.343296 64.000000
63.362778 68.000000
63.382261 69.000000
63.401743 67.000000
63.421225 67.000000
63.440708 59.000000
63.460190 71.000000
63.479673 77.000000
63.499155 77.000000
63.518637 56.000000
63.538120 44.000000
63.557602 76.000000
63.577084 66.000000
63.596567 54.000000
63.616049 65.000000
63.635532 77.000000
63.655014 71.000000
63.674496 72.000000
63.693979 80.000000
63.713461 80.000000
63.732943 74.000000
63.752426 88.000000
63.771908 88.000000
63.791390 78.000000
63.810873 92.000000
63.830355 81.000000
63.849838 83.000000
63.869320 111.000000
63.888802 103.000000
63.908285 146.000000
63.927767 202.000000
63.947249 253.000000
63.966732 333.000000
63.986214 401.000000
64.005697 491.000000
64.025179 471.000000
64.044661 419.000000
64.064144 248.000000
64.083626 219.000000
64.103108 147.000000
64.122591 172.000000
64.142073 202.000000
64.161556 246.000000
64.181038 258.000000
64.200520 263.000000
64.220003 236.000000
64.239485 175.000000
64.258967 119.000000
64.278450 99.000000
64.297932 102.000000
64.317414 77.000000
64.336897 74.000000
64.356379 71.000000
64.375862 65.000000
64.395344 87.000000
64.414826 78.000000
64.434309 84.000000
64.453791 71.000000
64.473273 65.000000
64.492756 72.000000
64.512238 81.000000
64.531721 70.000000
64.551203 77.000000
64.570685 74.000000
64.590168 69.000000
64.609650 69.000000
64.629132 80.000000
64.648615 71.000000
64.668097 74.000000
64.687579 75.000000
64.707062 76.000000
64.726544 68.000000
64.746027 77.000000
64.765509 77.000000
64.784991 71.000000
64.804474 85.000000
64.823956 80.000000
64.843438 52.000000
64.862921 71.000000
64.882403 68.000000
64.901886 84.000000
64.921368 80.000000
64.940850 71.000000
64.960333 75.000000
64.979815 69.000000
64.999297 71.000000
65.018780 80.000000
65.038262 72.000000
65.057744 88.000000
65.077227 71.000000
65.096709 88.000000
65.116192 59.000000
65.135674 83.000000
65.155156 87.000000
65.174639 74.000000
65.194121 86.000000
65.213603 70.000000
65.233086 80.000000
65.252568 72.000000
65.272051 76.000000
65.291533 89.000000
65.311015 75.000000
65.330498 77.000000
65.349980 73.000000
65.369462 68.000000
65.388945 83.000000
65.408427 87.000000
65.427909 76.000000
65.447392 77.000000
65.466874 90.000000
65.486357 83.000000
65.505839 87.000000
65.525321 91.000000
65.544804 85.000000
65.564286 115.000000
65.583768 113.000000
65.603251 143.000000
65.622733 151.000000
65.642216 122.000000
65.661698 127.000000
65.681180 171.000000
65.700663 219.000000
65.720145 289.000000
65.739627 335.000000
65.759110 400.000000
65.778592 416.000000
65.798075 340.000000
65.817557 264.000000
65.837039 190.000000
65.856522 150.000000
65.876004 154.000000
65.895486 167.000000
65.914969 187.000000
65.934451 252.000000
65.953933 221.000000
65.973416 217.000000
65.992898 187.000000
66.012381 149.000000
66.031863 127.000000
66.051345 107.000000
66.070828 117.000000
66.090310 93.000000
66.109792 97.000000
66.129275 95.000000
66.148757 89.000000
66.168240 85.000000
66.187722 71.000000
66.207204 84.000000
66.226687 80.000000
66.246169 85.000000
66.265651 73.000000
66.285134 78.000000
66.304616 72.000000
66.324098 95.000000
66.343581 75.000000
66.363063 68.000000
66.382546 76.000000
66.402028 77.000000
66.421510 68.000000
66.440993 67.000000
66.460475 81.000000
66.479957 67.000000
66.499440 75.000000
66.518922 79.000000
66.538405 74.000000
66.557887 77.000000
66.577369 78.000000
66.596852 64.000000
66.616334 72.000000
66.635816 70.000000
66.655299 84.000000
66.674781 86.000000
66.694263 85.000000
66.713746 77.000000
66.733228 77.000000
66.752711 77.000000
66.772193 90.000000
66.791675 80.000000
66.811158 79.000000
66.830640 83.000000
66.850122 76.000000
66.869605 75.000000
66.889087 80.000000
66.908570 84.000000
66.928052 74.000000
66.947534 59.000000
66.967017 72.000000
66.986499 49.000000
67.005981 85.000000
67.025464 92.000000
67.044946 73.000000
67.064428 71.000000
67.083911 81.000000
67.103393 90.000000
67.122876 90.000000
67.142358 95.000000
67.161840 90.000000
67.181323 72.000000
67.200805 97.000000
67.220287 83.000000
67.239770 101.000000
67.259252 86.000000
67.278735 87.000000
67.298217 79.000000
67.317699 110.000000
67.337182 113.000000
67.356664 114.000000
67.376146 94.000000
67.395629 108.000000
67.415111 109.000000
67.434593 123.000000
67.454076 117.000000
67.473558 130.000000
67.493041 131.000000
67.512523 155.000000
67.532005 156.000000
67.551488 176.000000
67.570970 196.000000
67.590452 247.000000
67.609935 373.000000
67.629417 488.000000
67.648900 634.000000
67.668382 943.000000
67.687864 1252.000000
67.707347 1485.000000
67.726829 1633.000000
67.746311 1408.000000
67.765794 1016.000000
67.785276 707.000000
67.804759 583.000000
67.824241 506.000000
67.843723 513.000000
67.863206 619.000000
67.882688 710.000000
67.902170 883.000000
67.921653 841.000000
67.941135 780.000000
67.960617 611.000000
67.980100 485.000000
67.999582 433.000000
68.019065 482.000000
68.038547 620.000000
68.058029 797.000000
68.077512 1106.000000
68.096994 1492.000000
68.116476 1608.000000
68.135959 1488.000000
68.155441 1158.000000
68.174924 960.000000
68.194406 792.000000
68.213888 769.000000
68.233371 1012.000000
68.252853 1173.000000
68.272335 1442.000000
68.291818 1628.000000
68.311300 1547.000000
68.330782 1258.000000
68.350265 1009.000000
68.369747 647.000000
68.389230 547.000000
68.408712 503.000000
68.428194 453.000000
68.447677 538.000000
68.467159 554.000000
68.486641 563.000000
68.506124 469.000000
68.525606 388.000000
68.545089 297.000000
68.564571 227.000000
68.584053 162.000000
68.603536 137.000000
68.623018 141.000000
68.642500 126.000000
68.661983 99.000000
68.681465 106.000000
68.700947 107.000000
68.720430 101.000000
68.739912 104.000000
68.759395 97.000000
68.778877 102.000000
68.798359 86.000000
68.817842 109.000000
68.837324 87.000000
68.856806 84.000000
68.876289 100.000000
68.895771 79.000000
68.915254 83.000000
68.934736 82.000000
68.954218 83.000000
68.973701 84.000000
68.993183 94.000000
69.012665 68.000000
69.032148 85.000000
69.051630 79.000000
69.071112 77.000000
69.090595 88.000000
69.110077 94.000000
69.129560 86.000000
69.149042 82.000000
69.168524 85.000000
69.188007 71.000000
69.207489 91.000000
69.226971 91.000000
69.246454 74.000000
69.265936 75.000000
69.285419 92.000000
69.304901 70.000000
69.324383 76.000000
69.343866 88.000000
69.363348 75.000000
69.382830 80.000000
69.402313 77.000000
69.421795 79.000000
69.441278 70.000000
69.460760 66.000000
69.480242 65.000000
69.499725 63.000000
69.519207 68.000000
69.538689 70.000000
69.558172 64.000000
69.577654 76.000000
69.597136 84.000000
69.616619 79.000000
69.636101 68.000000
69.655584 71.000000
69.675066 73.000000
69.694548 81.000000
69.714031 66.000000
69.733513 69.000000
69.752995 82.000000
69.772478 80.000000
69.791960 73.000000
69.811443 62.000000
69.830925 64.000000
69.850407 68.000000
69.869890 81.000000
69.889372 79.000000
69.908854 93.000000
69.928337 72.000000
69.947819 82.000000
69.967301 65.000000
69.986784 78.000000
70.006266 66.000000
70.025749 75.000000
