4.000000 500.000000
4.019482 501.000000
4.038965 466.000000
4.058447 472.000000
4.077929 472.000000
4.097412 473.000000
4.116894 491.000000
4.136377 455.000000
4.155859 454.000000
4.175341 450.000000
4.194824 433.000000
4.214306 452.000000
4.233788 392.000000
4.253271 424.000000
4.272753 407.000000
4.292236 439.000000
4.311718 391.000000
4.331200 406.000000
4.350683 406.000000
4.370165 400.000000
4.389647 328.000000
4.409130 402.000000
4.428612 400.000000
4.448094 367.000000
4.467577 339.000000
4.487059 357.000000
4.506542 380.000000
4.526024 387.000000
4.545506 379.000000
4.564989 339.000000
4.584471 356.000000
4.603953 359.000000
4.623436 366.000000
4.642918 342.000000
4.662401 353.000000
4.681883 345.000000
4.701365 349.000000
4.720848 317.000000
4.740330 350.000000
4.759812 302.000000
4.779295 318.000000
4.798777 320.000000
4.818259 333.000000
4.837742 292.000000
4.857224 295.000000
4.876707 339.000000
4.896189 312.000000
4.915671 279.000000
4.935154 245.000000
4.954636 302.000000
4.974118 297.000000
4.993601 285.000000
5.013083 292.000000
5.032566 292.000000
5.052048 285.000000
5.071530 278.000000
5.091013 283.000000
5.110495 263.000000
5.129977 278.000000
5.149460 256.000000
5.168942 282.000000
5.188425 273.000000
5.207907 274.000000
5.227389 289.000000
5.246872 285.000000
5.266354 288.000000
5.285836 262.000000
5.305319 255.000000
5.324801 255.000000
5.344283 256.000000
5.363766 241.000000
5.383248 239.000000
5.402731 259.000000
5.422213 251.000000
5.441695 242.000000
5.461178 244.000000
5.480660 271.000000
5.500142 276.000000
5.519625 254.000000
5.539107 246.000000
5.558590 254.000000
5.578072 266.000000
5.597554 262.000000
5.617037 261.000000
5.636519 245.000000
5.656001 237.000000
5.675484 278.000000
5.694966 275.000000
5.714448 268.000000
5.733931 248.000000
5.753413 235.000000
5.772896 252.000000
5.792378 246.000000
5.811860 249.000000
5.831343 227.000000
5.850825 243.000000
5.870307 239.000000
5.889790 214.000000
5.909272 253.000000
5.928755 227.000000
5.948237 188.000000
5.967719 232.000000
5.987202 238.000000
6.006684 200.000000
6.026166 246.000000
6.045649 235.000000
6.065131 236.000000
6.084613 228.000000
6.104096 230.000000
6.123578 254.000000
6.143061 238.000000
6.162543 216.000000
6.182025 237.000000
6.201508 216.000000
6.220990 246.000000
6.240472 196.000000
6.259955 214.000000
6.279437 200.000000
6.298920 222.000000
6.318402 224.000000
6.337884 170.000000
6.357367 221.000000
6.376849 233.000000
6.396331 207.000000
6.415814 212.000000
6.435296 192.000000
6.454778 178.000000
6.474261 217.000000
6.493743 208.000000
6.513226 207.000000
6.532708 206.000000
6.552190 173.000000
6.571673 200.000000
6.591155 212.000000
6.610637 218.000000
6.630120 191.000000
6.649602 198.000000
6.669085 238.000000
6.688567 188.000000
6.708049 179.000000
6.727532 208.000000
6.747014 193.000000
6.766496 176.000000
6.785979 188.000000
6.805461 196.000000
6.824944 179.000000
6.844426 181.000000
6.863908 168.000000
6.883391 189.000000
6.902873 182.000000
6.922355 180.000000
6.941838 171.000000
6.961320 198.000000
6.980802 179.000000
7.000285 163.000000
7.019767 180.000000
7.039250 189.000000
7.058732 172.000000
7.078214 189.000000
7.097697 191.000000
7.117179 177.000000
7.136661 185.000000
7.156144 178.000000
7.175626 166.000000
7.195109 177.000000
7.214591 179.000000
7.234073 177.000000
7.253556 167.000000
7.273038 203.000000
7.292520 167.000000
7.312003 169.000000
7.331485 167.000000
7.350967 187.000000
7.370450 159.000000
7.389932 177.000000
7.409415 156.000000
7.428897 182.000000
7.448379 169.000000
7.467862 170.000000
7.487344 152.000000
7.506826 159.000000
7.526309 143.000000
7.545791 149.000000
7.565274 155.000000
7.584756 142.000000
7.604238 158.000000
7.623721 179.000000
7.643203 164.000000
7.662685 172.000000
7.682168 152.000000
7.701650 183.000000
7.721132 164.000000
7.740615 137.000000
7.760097 182.000000
7.779580 160.000000
7.799062 170.000000
7.818544 182.000000
7.838027 153.000000
7.857509 168.000000
7.876991 164.000000
7.896474 142.000000
7.915956 159.000000
7.935439 155.000000
7.954921 164.000000
7.974403 165.000000
7.993886 136.000000
8.013368 160.000000
8.032850 162.000000
8.052333 170.000000
8.071815 161.000000
8.091297 154.000000
8.110780 172.000000
8.130262 145.000000
8.149745 170.000000
8.169227 140.000000
8.188709 162.000000
8.208192 157.000000
8.227674 151.000000
8.247156 152.000000
8.266639 139.000000
8.286121 149.000000
8.305604 183.000000
8.325086 159.000000
8.344568 142.000000
8.364051 142.000000
8.383533 134.000000
8.403015 184.000000
8.422498 150.000000
8.441980 138.000000
8.461463 156.000000
8.480945 161.000000
8.500427 161.000000
8.519910 171.000000
8.539392 168.000000
8.558874 156.000000
8.578357 160.000000
8.597839 156.000000
8.617321 161.000000
8.636804 142.000000
8.656286 130.000000
8.675769 144.000000
8.695251 150.000000
8.714733 138.000000
8.734216 163.000000
8.753698 178.000000
8.773180 185.000000
8.792663 136.000000
8.812145 166.000000
8.831628 142.000000
8.851110 156.000000
8.870592 151.000000
8.890075 161.000000
8.909557 172.000000
8.929039 156.000000
8.948522 152.000000
8.968004 147.000000
8.987486 160.000000
9.006969 132.000000
9.026451 148.000000
9.045934 141.000000
9.065416 170.000000
9.084898 145.000000
9.104381 149.000000
9.123863 155.000000
9.143345 176.000000
9.162828 173.000000
9.182310 143.000000
9.201793 143.000000
9.221275 147.000000
9.240757 150.000000
9.260240 130.000000
9.279722 139.000000
9.299204 169.000000
9.318687 158.000000
9.338169 134.000000
9.357651 133.000000
9.377134 159.000000
9.396616 143.000000
9.416099 164.000000
9.435581 145.000000
9.455063 125.000000
9.474546 150.000000
9.494028 148.000000
9.513510 141.000000
9.532993 144.000000
9.552475 151.000000
9.571958 161.000000
9.591440 134.000000
9.610922 153.000000
9.630405 164.000000
9.649887 155.000000
9.669369 150.000000
9.688852 151.000000
9.708334 135.000000
9.727816 134.000000
9.747299 147.000000
9.766781 149.000000
9.786264 144.000000
9.805746 149.000000
9.825228 139.000000
9.844711 145.000000
9.864193 136.000000
9.883675 159.000000
9.903158 141.000000
9.922640 153.000000
9.942123 149.000000
9.961605 137.000000
9.981087 153.000000
10.000570 147.000000
10.020052 143.000000
10.039534 130.000000
10.059017 129.000000
10.078499 126.000000
10.097982 141.000000
10.117464 116.000000
10.136946 130.000000
10.156429 130.000000
10.175911 134.000000
10.195393 155.000000
10.214876 116.000000
10.234358 117.000000
10.253840 149.000000
10.273323 154.000000
10.292805 133.000000
10.312288 134.000000
10.331770 137.000000
10.351252 129.000000
10.370735 137.000000
10.390217 127.000000
10.409699 149.000000
10.429182 144.000000
10.448664 140.000000
10.468147 147.000000
10.487629 143.000000
10.507111 127.000000
10.526594 122.000000
10.546076 152.000000
10.565558 131.000000
10.585041 129.000000
10.604523 128.000000
10.624005 143.000000
10.643488 128.000000
10.662970 136.000000
10.682453 127.000000
10.701935 148.000000
10.721417 145.000000
10.740900 130.000000
10.760382 126.000000
10.779864 126.000000
10.799347 138.000000
10.818829 114.000000
10.838312 124.000000
10.857794 133.000000
10.877276 153.000000
10.896759 133.000000
10.916241 137.000000
10.935723 125.000000
10.955206 130.000000
10.974688 131.000000
10.994170 114.000000
11.013653 133.000000
11.033135 116.000000
11.052618 118.000000
11.072100 151.000000
11.091582 138.000000
11.111065 127.000000
11.130547 125.000000
11.150029 124.000000
11.169512 140.000000
11.188994 106.000000
11.208477 130.000000
11.227959 109.000000
11.247441 124.000000
11.266924 138.000000
11.286406 138.000000
11.305888 124.000000
11.325371 116.000000
11.344853 130.000000
11.364335 132.000000
11.383818 132.000000
11.403300 136.000000
11.422783 115.000000
11.442265 127.000000
11.461747 110.000000
11.481230 112.000000
11.500712 135.000000
11.520194 108.000000
11.539677 106.000000
11.559159 123.000000
11.578642 100.000000
11.598124 134.000000
11.617606 124.000000
11.637089 127.000000
11.656571 120.000000
11.676053 127.000000
11.695536 116.000000
11.715018 114.000000
11.734500 136.000000
11.753983 120.000000
11.773465 112.000000
11.792948 113.000000
11.812430 129.000000
11.831912 134.000000
11.851395 105.000000
11.870877 116.000000
11.890359 124.000000
11.909842 133.000000
11.929324 136.000000
11.948807 112.000000
11.968289 137.000000
11.987771 136.000000
12.007254 125.000000
12.026736 99.000000
12.046218 116.000000
12.065701 114.000000
12.085183 107.000000
12.104666 109.000000
12.124148 112.000000
12.143630 128.000000
12.163113 104.000000
12.182595 119.000000
12.202077 131.000000
12.221560 130.000000
12.241042 111.000000
12.260524 128.000000
12.280007 135.000000
12.299489 120.000000
12.318972 129.000000
12.338454 101.000000
12.357936 125.000000
12.377419 121.000000
12.396901 136.000000
12.416383 126.000000
12.435866 113.000000
12.455348 118.000000
12.474831 96.000000
12.494313 123.000000
12.513795 113.000000
12.533278 123.000000
12.552760 119.000000
12.572242 122.000000
12.591725 102.000000
12.611207 125.000000
12.630689 123.000000
12.650172 101.000000
12.669654 101.000000
12.689137 104.000000
12.708619 103.000000
12.728101 114.000000
12.747584 102.000000
12.767066 113.000000
12.786548 116.000000
12.806031 103.000000
12.825513 102.000000
12.844996 102.000000
12.864478 112.000000
12.883960 112.000000
12.903443 114.000000
12.922925 121.000000
12.942407 113.000000
12.961890 105.000000
12.981372 140.000000
13.000854 113.000000
13.020337 96.000000
13.039819 100.000000
13.059302 96.000000
13.078784 117.000000
13.098266 103.000000
13.117749 97.000000
13.137231 100.000000
13.156713 116.000000
13.176196 118.000000
13.195678 100.000000
13.215161 97.000000
13.234643 112.000000
13.254125 103.000000
13.273608 95.000000
13.293090 107.000000
13.312572 97.000000
13.332055 139.000000
13.351537 101.000000
13.371019 136.000000
13.390502 121.000000
13.409984 115.000000
13.429467 114.000000
13.448949 112.000000
13.468431 123.000000
13.487914 111.000000
13.507396 105.000000
13.526878 101.000000
13.546361 120.000000
13.565843 104.000000
13.585326 107.000000
13.604808 100.000000
13.624290 99.000000
13.643773 104.000000
13.663255 104.000000
13.682737 117.000000
13.702220 86.000000
13.721702 105.000000
13.741185 98.000000
13.760667 99.000000
13.780149 113.000000
13.799632 99.000000
13.819114 112.000000
13.838596 104.000000
13.858079 89.000000
13.877561 91.000000
13.897043 102.000000
13.916526 105.000000
13.936008 90.000000
13.955491 128.000000
13.974973 79.000000
13.994455 105.000000
14.013938 105.000000
14.033420 90.000000
14.052902 102.000000
14.072385 95.000000
14.091867 78.000000
14.111350 98.000000
14.130832 104.000000
14.150314 86.000000
14.169797 98.000000
14.189279 116.000000
14.208761 110.000000
14.228244 91.000000
14.247726 99.000000
14.267208 79.000000
14.286691 108.000000
14.306173 98.000000
14.325656 95.000000
14.345138 92.000000
14.364620 94.000000
14.384103 87.000000
14.403585 93.000000
14.423067 100.000000
14.442550 104.000000
14.462032 86.000000
14.481515 114.000000
14.500997 93.000000
14.520479 94.000000
14.539962 100.000000
14.559444 88.000000
14.578926 72.000000
14.598409 92.000000
14.617891 92.000000
14.637373 88.000000
14.656856 80.000000
14.676338 85.000000
14.695821 89.000000
14.715303 88.000000
14.734785 84.000000
14.754268 91.000000
14.773750 86.000000
14.793232 89.000000
14.812715 88.000000
14.832197 83.000000
14.851680 87.000000
14.871162 90.000000
14.890644 89.000000
14.910127 86.000000
14.929609 87.000000
14.949091 103.000000
14.968574 94.000000
14.988056 90.000000
15.007538 97.000000
15.027021 92.000000
15.046503 110.000000
15.065986 102.000000
15.085468 82.000000
15.104950 80.000000
15.124433 95.000000
15.143915 107.000000
15.163397 73.000000
15.182880 117.000000
15.202362 89.000000
15.221845 98.000000
15.241327 90.000000
15.260809 87.000000
15.280292 88.000000
15.299774 88.000000
15.319256 83.000000
15.338739 89.000000
15.358221 84.000000
15.377704 94.000000
15.397186 85.000000
15.416668 93.000000
15.436151 86.000000
15.455633 92.000000
15.475115 90.000000
15.494598 63.000000
15.514080 76.000000
15.533562 85.000000
15.553045 96.000000
15.572527 99.000000
15.592010 94.000000
15.611492 93.000000
15.630974 81.000000
15.650457 98.000000
15.669939 98.000000
15.689421 114.000000
15.708904 86.000000
15.728386 96.000000
15.747869 85.000000
15.767351 82.000000
15.786833 74.000000
15.806316 91.000000
15.825798 95.000000
15.845280 99.000000
15.864763 75.000000
15.884245 87.000000
15.903727 83.000000
15.923210 82.000000
15.942692 72.000000
15.962175 86.000000
15.981657 84.000000
16.001139 84.000000
16.020622 92.000000
16.040104 85.000000
16.059586 80.000000
16.079069 80.000000
16.098551 79.000000
16.118034 92.000000
16.137516 73.000000
16.156998 77.000000
16.176481 76.000000
16.195963 94.000000
16.215445 76.000000
16.234928 78.000000
16.254410 84.000000
16.273892 81.000000
16.293375 83.000000
16.312857 88.000000
16.332340 74.000000
16.351822 87.000000
16.371304 90.000000
16.390787 86.000000
16.410269 95.000000
16.429751 98.000000
16.449234 76.000000
16.468716 86.000000
16.488199 103.000000
16.507681 87.000000
16.527163 87.000000
16.546646 92.000000
16.566128 76.000000
16.585610 90.000000
16.605093 80.000000
16.624575 79.000000
16.644057 61.000000
16.663540 88.000000
16.683022 69.000000
16.702505 84.000000
16.721987 101.000000
16.741469 85.000000
16.760952 74.000000
16.780434 70.000000
16.799916 71.000000
16.819399 85.000000
16.838881 77.000000
16.858364 97.000000
16.877846 78.000000
16.897328 90.000000
16.916811 84.000000
16.936293 94.000000
16.955775 86.000000
16.975258 93.000000
16.994740 103.000000
17.014222 80.000000
17.033705 93.000000
17.053187 97.000000
17.072670 75.000000
17.092152 74.000000
17.111634 81.000000
17.131117 85.000000
17.150599 92.000000
17.170081 81.000000
17.189564 97.000000
17.209046 106.000000
17.228529 73.000000
17.248011 81.000000
17.267493 54.000000
17.286976 57.000000
17.306458 88.000000
17.325940 84.000000
17.345423 60.000000
17.364905 77.000000
17.384388 75.000000
17.403870 79.000000
17.423352 88.000000
17.442835 69.000000
17.462317 78.000000
17.481799 79.000000
17.501282 84.000000
17.520764 88.000000
17.540246 76.000000
17.559729 77.000000
17.579211 79.000000
17.598694 79.000000
17.618176 71.000000
17.637658 83.000000
17.657141 80.000000
17.676623 68.000000
17.696105 82.000000
17.715588 80.000000
17.735070 87.000000
17.754553 62.000000
17.774035 71.000000
17.793517 87.000000
17.813000 77.000000
17.832482 74.000000
17.851964 71.000000
17.871447 99.000000
17.890929 70.000000
17.910411 75.000000
17.929894 80.000000
17.949376 87.000000
17.968859 68.000000
17.988341 75.000000
18.007823 73.000000
18.027306 68.000000
18.046788 77.000000
18.066270 74.000000
18.085753 68.000000
18.105235 84.000000
18.124718 73.000000
18.144200 68.000000
18.163682 77.000000
18.183165 68.000000
18.202647 69.000000
18.222129 80.000000
18.241612 57.000000
18.261094 76.000000
18.280576 75.000000
18.300059 92.000000
18.319541 76.000000
18.339024 71.000000
18.358506 72.000000
18.377988 70.000000
18.397471 71.000000
18.416953 79.000000
18.436435 79.000000
18.455918 67.000000
18.475400 75.000000
18.494883 81.000000
18.514365 62.000000
18.533847 68.000000
18.553330 59.000000
18.572812 70.000000
18.592294 64.000000
18.611777 78.000000
18.631259 80.000000
18.650741 71.000000
18.670224 79.000000
18.689706 68.000000
18.709189 63.000000
18.728671 85.000000
18.748153 88.000000
18.767636 86.000000
18.787118 75.000000
18.806600 94.000000
18.826083 92.000000
18.845565 74.000000
18.865048 67.000000
18.884530 74.000000
18.904012 79.000000
18.923495 102.000000
18.942977 68.000000
18.962459 78.000000
18.981942 78.000000
19.001424 73.000000
19.020907 68.000000
19.040389 76.000000
19.059871 75.000000
19.079354 67.000000
19.098836 59.000000
19.118318 72.000000
19.137801 73.000000
19.157283 79.000000
19.176765 80.000000
19.196248 76.000000
19.215730 73.000000
19.235213 80.000000
19.254695 71.000000
19.274177 86.000000
19.293660 83.000000
19.313142 62.000000
19.332624 74.000000
19.352107 64.000000
19.371589 64.000000
19.391072 60.000000
19.410554 61.000000
19.430036 71.000000
19.449519 74.000000
19.469001 76.000000
19.488483 68.000000
19.507966 77.000000
19.527448 80.000000
19.546930 61.000000
19.566413 93.000000
19.585895 76.000000
19.605378 77.000000
19.624860 71.000000
19.644342 80.000000
19.663825 57.000000
19.683307 88.000000
19.702789 81.000000
19.722272 76.000000
19.741754 66.000000
19.761237 86.000000
19.780719 75.000000
19.800201 67.000000
19.819684 76.000000
19.839166 68.000000
19.858648 75.000000
19.878131 66.000000
19.897613 73.000000
19.917095 59.000000
19.936578 73.000000
19.956060 62.000000
19.975543 65.000000
19.995025 75.000000
20.014507 69.000000
20.033990 75.000000
20.053472 74.000000
20.072954 71.000000
20.092437 96.000000
20.111919 90.000000
20.131402 102.000000
20.150884 79.000000
20.170366 83.000000
20.189849 85.000000
20.209331 68.000000
20.228813 95.000000
20.248296 94.000000
20.267778 82.000000
20.287260 82.000000
20.306743 85.000000
20.326225 86.000000
20.345708 97.000000
20.365190 94.000000
20.384672 78.000000
20.404155 115.000000
20.423637 93.000000
20.443119 102.000000
20.462602 102.000000
20.482084 102.000000
20.501567 107.000000
20.521049 96.000000
20.540531 106.000000
20.560014 90.000000
20.579496 107.000000
20.598978 99.000000
20.618461 110.000000
20.637943 118.000000
20.657426 142.000000
20.676908 177.000000
20.696390 215.000000
20.715873 307.000000
20.735355 584.000000
20.754837 1114.000000
20.774320 1891.000000
20.793802 3323.000000
20.813284 5418.000000
20.832767 6788.000000
20.852249 5683.000000
20.871732 4231.000000
20.891214 3143.000000
20.910696 1846.000000
20.930179 705.000000
20.949661 294.000000
20.969143 213.000000
20.988626 167.000000
21.008108 143.000000
21.027591 131.000000
21.047073 121.000000
21.066555 131.000000
21.086038 106.000000
21.105520 119.000000
21.125002 111.000000
21.144485 106.000000
21.163967 97.000000
21.183449 93.000000
21.202932 68.000000
21.222414 85.000000
21.241897 91.000000
21.261379 86.000000
21.280861 91.000000
21.300344 86.000000
21.319826 79.000000
21.339308 72.000000
21.358791 98.000000
21.378273 87.000000
21.397756 66.000000
21.417238 85.000000
21.436720 86.000000
21.456203 82.000000
21.475685 76.000000
21.495167 89.000000
21.514650 76.000000
21.534132 84.000000
21.553614 92.000000
21.573097 78.000000
21.592579 73.000000
21.612062 75.000000
21.631544 75.000000
21.651026 89.000000
21.670509 81.000000
21.689991 80.000000
21.709473 72.000000
21.728956 95.000000
21.748438 84.000000
21.767921 72.000000
21.787403 83.000000
21.806885 76.000000
21.826368 68.000000
21.845850 83.000000
21.865332 77.000000
21.884815 87.000000
21.904297 69.000000
21.923779 66.000000
21.943262 87.000000
21.962744 80.000000
21.982227 67.000000
22.001709 88.000000
22.021191 73.000000
22.040674 79.000000
22.060156 89.000000
22.079638 65.000000
22.099121 65.000000
22.118603 84.000000
22.138086 82.000000
22.157568 67.000000
22.177050 70.000000
22.196533 73.000000
22.216015 64.000000
22.235497 68.000000
22.254980 76.000000
22.274462 80.000000
22.293945 75.000000
22.313427 67.000000
22.332909 73.000000
22.352392 66.000000
22.371874 60.000000
22.391356 77.000000
22.410839 63.000000
22.430321 66.000000
22.449803 77.000000
22.469286 71.000000
22.488768 69.000000
22.508251 71.000000
22.527733 78.000000
22.547215 80.000000
22.566698 56.000000
22.586180 78.000000
22.605662 76.000000
22.625145 86.000000
22.644627 66.000000
22.664110 85.000000
22.683592 76.000000
22.703074 69.000000
22.722557 59.000000
22.742039 84.000000
22.761521 79.000000
22.781004 70.000000
22.800486 72.000000
22.819968 67.000000
22.839451 78.000000
22.858933 77.000000
22.878416 76.000000
22.897898 71.000000
22.917380 69.000000
22.936863 72.000000
22.956345 73.000000
22.975827 81.000000
22.995310 78.000000
23.014792 72.000000
23.034275 85.000000
23.053757 84.000000
23.073239 60.000000
23.092722 62.000000
23.112204 75.000000
23.131686 73.000000
23.151169 75.000000
23.170651 78.000000
23.190133 70.000000
23.209616 69.000000
23.229098 64.000000
23.248581 75.000000
23.268063 66.000000
23.287545 74.000000
23.307028 75.000000
23.326510 65.000000
23.345992 84.000000
23.365475 68.000000
23.384957 72.000000
23.404440 58.000000
23.423922 73.000000
23.443404 66.000000
23.462887 60.000000
23.482369 54.000000
23.501851 60.000000
23.521334 76.000000
23.540816 63.000000
23.560298 60.000000
23.579781 69.000000
23.599263 67.000000
23.618746 84.000000
23.638228 80.000000
23.657710 67.000000
23.677193 78.000000
23.696675 52.000000
23.716157 72.000000
23.735640 71.000000
23.755122 56.000000
23.774605 75.000000
23.794087 79.000000
23.813569 64.000000
23.833052 78.000000
23.852534 64.000000
23.872016 75.000000
23.891499 69.000000
23.910981 69.000000
23.930463 99.000000
23.949946 97.000000
23.969428 96.000000
23.988911 90.000000
24.008393 135.000000
24.027875 105.000000
24.047358 115.000000
24.066840 70.000000
24.086322 74.000000
24.105805 80.000000
24.125287 86.000000
24.144770 56.000000
24.164252 77.000000
24.183734 63.000000
24.203217 62.000000
24.222699 71.000000
24.242181 57.000000
24.261664 72.000000
24.281146 80.000000
24.300629 85.000000
24.320111 59.000000
24.339593 65.000000
24.359076 84.000000
24.378558 74.000000
24.398040 79.000000
24.417523 57.000000
24.437005 53.000000
24.456487 55.000000
24.475970 63.000000
24.495452 78.000000
24.514935 50.000000
24.534417 66.000000
24.553899 78.000000
24.573382 64.000000
24.592864 59.000000
24.612346 64.000000
24.631829 70.000000
24.651311 69.000000
24.670794 60.000000
24.690276 70.000000
24.709758 77.000000
24.729241 57.000000
24.748723 60.000000
24.768205 74.000000
24.787688 68.000000
24.807170 84.000000
24.826652 67.000000
24.846135 66.000000
24.865617 52.000000
24.885100 60.000000
24.904582 59.000000
24.924064 54.000000
24.943547 71.000000
24.963029 54.000000
24.982511 57.000000
25.001994 60.000000
25.021476 77.000000
25.040959 63.000000
25.060441 59.000000
25.079923 79.000000
25.099406 62.000000
25.118888 54.000000
25.138370 69.000000
25.157853 58.000000
25.177335 49.000000
25.196817 55.000000
25.216300 62.000000
25.235782 55.000000
25.255265 63.000000
25.274747 67.000000
25.294229 65.000000
25.313712 66.000000
25.333194 58.000000
25.352676 69.000000
25.372159 81.000000
25.391641 61.000000
25.411124 62.000000
25.430606 67.000000
25.450088 70.000000
25.469571 58.000000
25.489053 69.000000
25.508535 70.000000
25.528018 55.000000
25.547500 54.000000
25.566982 68.000000
25.586465 67.000000
25.605947 72.000000
25.625430 64.000000
25.644912 75.000000
25.664394 92.000000
25.683877 86.000000
25.703359 114.000000
25.722841 119.000000
25.742324 118.000000
25.761806 121.000000
25.781289 154.000000
25.800771 126.000000
25.820253 117.000000
25.839736 155.000000
25.859218 141.000000
25.878700 119.000000
25.898183 107.000000
25.917665 123.000000
25.937148 133.000000
25.956630 131.000000
25.976112 129.000000
25.995595 133.000000
26.015077 117.000000
26.034559 123.000000
26.054042 142.000000
26.073524 148.000000
26.093006 122.000000
26.112489 126.000000
26.131971 128.000000
26.151454 133.000000
26.170936 155.000000
26.190418 150.000000
26.209901 182.000000
26.229383 189.000000
26.248865 166.000000
26.268348 178.000000
26.287830 172.000000
26.307313 209.000000
26.326795 182.000000
26.346277 240.000000
26.365760 238.000000
26.385242 255.000000
26.404724 300.000000
26.424207 335.000000
26.443689 448.000000
26.463171 554.000000
26.482654 791.000000
26.502136 1234.000000
26.521619 2171.000000
26.541101 3883.000000
26.560583 7211.000000
26.580066 12599.000000
26.599548 18505.000000
26.619030 23247.000000
26.638513 21297.000000
26.657995 13903.000000
26.677478 11728.000000
26.696960 10849.000000
26.716442 6365.000000
26.735925 2190.000000
26.755407 972.000000
26.774889 625.000000
26.794372 459.000000
26.813854 376.000000
26.833336 328.000000
26.852819 289.000000
26.872301 262.000000
26.891784 242.000000
26.911266 228.000000
26.930748 201.000000
26.950231 200.000000
26.969713 185.000000
26.989195 135.000000
27.008678 157.000000
27.028160 182.000000
27.047643 125.000000
27.067125 146.000000
27.086607 116.000000
27.106090 119.000000
27.125572 139.000000
27.145054 127.000000
27.164537 129.000000
27.184019 133.000000
27.203501 133.000000
27.222984 106.000000
27.242466 146.000000
27.261949 126.000000
27.281431 115.000000
27.300913 107.000000
27.320396 89.000000
27.339878 108.000000
27.359360 114.000000
27.378843 139.000000
27.398325 110.000000
27.417808 115.000000
27.437290 98.000000
27.456772 94.000000
27.476255 123.000000
27.495737 107.000000
27.515219 95.000000
27.534702 77.000000
27.554184 122.000000
27.573667 98.000000
27.593149 109.000000
27.612631 99.000000
27.632114 112.000000
27.651596 86.000000
27.671078 113.000000
27.690561 105.000000
27.710043 91.000000
27.729525 104.000000
27.749008 105.000000
27.768490 83.000000
27.787973 111.000000
27.807455 78.000000
27.826937 80.000000
27.846420 92.000000
27.865902 93.000000
27.885384 77.000000
27.904867 102.000000
27.924349 86.000000
27.943832 86.000000
27.963314 107.000000
27.982796 81.000000
28.002279 81.000000
28.021761 83.000000
28.041243 74.000000
28.060726 90.000000
28.080208 94.000000
28.099690 87.000000
28.119173 86.000000
28.138655 93.000000
28.158138 81.000000
28.177620 81.000000
28.197102 92.000000
28.216585 91.000000
28.236067 105.000000
28.255549 90.000000
28.275032 83.000000
28.294514 85.000000
28.313997 92.000000
28.333479 81.000000
28.352961 74.000000
28.372444 79.000000
28.391926 82.000000
28.411408 77.000000
28.430891 82.000000
28.450373 82.000000
28.469855 82.000000
28.489338 75.000000
28.508820 91.000000
28.528303 73.000000
28.547785 67.000000
28.567267 70.000000
28.586750 71.000000
28.606232 66.000000
28.625714 77.000000
28.645197 75.000000
28.664679 73.000000
28.684162 69.000000
28.703644 75.000000
28.723126 77.000000
28.742609 88.000000
28.762091 73.000000
28.781573 71.000000
28.801056 90.000000
28.820538 85.000000
28.840020 80.000000
28.859503 89.000000
28.878985 76.000000
28.898468 76.000000
28.917950 90.000000
28.937432 75.000000
28.956915 77.000000
28.976397 76.000000
28.995879 73.000000
29.015362 77.000000
29.034844 80.000000
29.054327 55.000000
29.073809 75.000000
29.093291 70.000000
29.112774 92.000000
29.132256 76.000000
29.151738 65.000000
29.171221 75.000000
29.190703 78.000000
29.210185 55.000000
29.229668 81.000000
29.249150 75.000000
29.268633 66.000000
29.288115 72.000000
29.307597 72.000000
29.327080 80.000000
29.346562 87.000000
29.366044 109.000000
29.385527 100.000000
29.405009 73.000000
29.424492 86.000000
29.443974 68.000000
29.463456 94.000000
29.482939 87.000000
29.502421 72.000000
29.521903 71.000000
29.541386 92.000000
29.560868 65.000000
29.580351 78.000000
29.599833 67.000000
29.619315 62.000000
29.638798 67.000000
29.658280 86.000000
29.677762 63.000000
29.697245 72.000000
29.716727 70.000000
29.736209 56.000000
29.755692 61.000000
29.775174 69.000000
29.794657 62.000000
29.814139 87.000000
29.833621 76.000000
29.853104 65.000000
29.872586 70.000000
29.892068 68.000000
29.911551 81.000000
29.931033 80.000000
29.950516 66.000000
29.969998 72.000000
29.989480 87.000000
30.008963 73.000000
30.028445 78.000000
30.047927 74.000000
30.067410 69.000000
30.086892 73.000000
30.106374 76.000000
30.125857 61.000000
30.145339 80.000000
30.164822 60.000000
30.184304 56.000000
30.203786 74.000000
30.223269 76.000000
30.242751 70.000000
30.262233 64.000000
30.281716 78.000000
30.301198 75.000000
30.320681 71.000000
30.340163 66.000000
30.359645 80.000000
30.379128 56.000000
30.398610 69.000000
30.418092 54.000000
30.437575 72.000000
30.457057 71.000000
30.476539 78.000000
30.496022 67.000000
30.515504 81.000000
30.534987 61.000000
30.554469 60.000000
30.573951 59.000000
30.593434 50.000000
30.612916 78.000000
30.632398 67.000000
30.651881 63.000000
30.671363 67.000000
30.690846 75.000000
30.710328 64.000000
30.729810 60.000000
30.749293 84.000000
30.768775 64.000000
30.788257 65.000000
30.807740 59.000000
30.827222 65.000000
30.846704 48.000000
30.866187 53.000000
30.885669 67.000000
30.905152 64.000000
30.924634 50.000000
30.944116 71.000000
30.963599 75.000000
30.983081 63.000000
31.002563 59.000000
31.022046 64.000000
31.041528 59.000000
31.061011 76.000000
31.080493 66.000000
31.099975 74.000000
31.119458 56.000000
31.138940 67.000000
31.158422 59.000000
31.177905 71.000000
31.197387 74.000000
31.216870 63.000000
31.236352 53.000000
31.255834 49.000000
31.275317 68.000000
31.294799 58.000000
31.314281 45.000000
31.333764 57.000000
31.353246 60.000000
31.372728 54.000000
31.392211 55.000000
31.411693 58.000000
31.431176 60.000000
31.450658 54.000000
31.470140 68.000000
31.489623 61.000000
31.509105 65.000000
31.528587 61.000000
31.548070 63.000000
31.567552 48.000000
31.587035 55.000000
31.606517 53.000000
31.625999 76.000000
31.645482 62.000000
31.664964 70.000000
31.684446 51.000000
31.703929 57.000000
31.723411 59.000000
31.742893 58.000000
31.762376 58.000000
31.781858 66.000000
31.801341 52.000000
31.820823 74.000000
31.840305 63.000000
31.859788 69.000000
31.879270 49.000000
31.898752 55.000000
31.918235 59.000000
31.937717 59.000000
31.957200 61.000000
31.976682 65.000000
31.996164 62.000000
32.015647 59.000000
32.035129 66.000000
32.054611 71.000000
32.074094 53.000000
32.093576 61.000000
32.113058 56.000000
32.132541 41.000000
32.152023 57.000000
32.171506 50.000000
32.190988 61.000000
32.210470 65.000000
32.229953 64.000000
32.249435 60.000000
32.268917 55.000000
32.288400 62.000000
32.307882 69.000000
32.327365 62.000000
32.346847 69.000000
32.366329 52.000000
32.385812 66.000000
32.405294 61.000000
32.424776 66.000000
32.444259 47.000000
32.463741 68.000000
32.483223 57.000000
32.502706 55.000000
32.522188 52.000000
32.541671 62.000000
32.561153 55.000000
32.580635 55.000000
32.600118 59.000000
32.619600 63.000000
32.639082 62.000000
32.658565 55.000000
32.678047 57.000000
32.697530 58.000000
32.717012 53.000000
32.736494 54.000000
32.755977 45.000000
32.775459 60.000000
32.794941 64.000000
32.814424 57.000000
32.833906 46.000000
32.853389 65.000000
32.872871 64.000000
32.892353 60.000000
32.911836 61.000000
32.931318 60.000000
32.950800 73.000000
32.970283 53.000000
32.989765 50.000000
33.009247 49.000000
33.028730 51.000000
33.048212 48.000000
33.067695 57.000000
33.087177 64.000000
33.106659 58.000000
33.126142 50.000000
33.145624 71.000000
33.165106 56.000000
33.184589 48.000000
33.204071 56.000000
33.223554 50.000000
33.243036 51.000000
33.262518 48.000000
33.282001 52.000000
33.301483 48.000000
33.320965 66.000000
33.340448 49.000000
33.359930 60.000000
33.379412 51.000000
33.398895 68.000000
33.418377 46.000000
33.437860 62.000000
33.457342 46.000000
33.476824 56.000000
33.496307 44.000000
33.515789 58.000000
33.535271 68.000000
33.554754 51.000000
33.574236 40.000000
33.593719 48.000000
33.613201 42.000000
33.632683 49.000000
33.652166 45.000000
33.671648 53.000000
33.691130 65.000000
33.710613 52.000000
33.730095 67.000000
33.749577 52.000000
33.769060 66.000000
33.788542 44.000000
33.808025 51.000000
33.827507 61.000000
33.846989 53.000000
33.866472 55.000000
33.885954 69.000000
33.905436 49.000000
33.924919 44.000000
33.944401 41.000000
33.963884 59.000000
33.983366 44.000000
34.002848 55.000000
34.022331 58.000000
34.041813 51.000000
34.061295 51.000000
34.080778 53.000000
34.100260 49.000000
34.119742 58.000000
34.139225 52.000000
34.158707 45.000000
34.178190 61.000000
34.197672 44.000000
34.217154 42.000000
34.236637 56.000000
34.256119 52.000000
34.275601 49.000000
34.295084 58.000000
34.314566 35.000000
34.334049 42.000000
34.353531 49.000000
34.373013 57.000000
34.392496 50.000000
34.411978 45.000000
34.431460 45.000000
34.450943 51.000000
34.470425 47.000000
34.489908 51.000000
34.509390 47.000000
34.528872 52.000000
34.548355 43.000000
34.567837 51.000000
34.587319 47.000000
34.606802 54.000000
34.626284 57.000000
34.645766 51.000000
34.665249 43.000000
34.684731 59.000000
34.704214 39.000000
34.723696 46.000000
34.743178 46.000000
34.762661 58.000000
34.782143 51.000000
34.801625 57.000000
34.821108 46.000000
34.840590 38.000000
34.860073 67.000000
34.879555 62.000000
34.899037 65.000000
34.918520 42.000000
34.938002 49.000000
34.957484 40.000000
34.976967 44.000000
34.996449 57.000000
35.015931 63.000000
35.035414 60.000000
35.054896 60.000000
35.074379 51.000000
35.093861 45.000000
35.113343 45.000000
35.132826 54.000000
35.152308 66.000000
35.171790 59.000000
35.191273 59.000000
35.210755 51.000000
35.230238 50.000000
35.249720 56.000000
35.269202 55.000000
35.288685 40.000000
35.308167 55.000000
35.327649 42.000000
35.347132 44.000000
35.366614 63.000000
35.386096 70.000000
35.405579 54.000000
35.425061 71.000000
35.444544 65.000000
35.464026 49.000000
35.483508 55.000000
35.502991 47.000000
35.522473 55.000000
35.541955 52.000000
35.561438 42.000000
35.580920 56.000000
35.600403 64.000000
35.619885 51.000000
35.639367 44.000000
35.658850 60.000000
35.678332 60.000000
35.697814 57.000000
35.717297 51.000000
35.736779 53.000000
35.756261 62.000000
35.775744 54.000000
35.795226 52.000000
35.814709 52.000000
35.834191 58.000000
35.853673 51.000000
35.873156 49.000000
35.892638 56.000000
35.912120 58.000000
35.931603 54.000000
35.951085 62.000000
35.970568 55.000000
35.990050 51.000000
36.009532 67.000000
36.029015 46.000000
36.048497 58.000000
36.067979 50.000000
36.087462 56.000000
36.106944 60.000000
36.126426 58.000000
36.145909 63.000000
36.165391 60.000000
36.184874 44.000000
36.204356 64.000000
36.223838 74.000000
36.243321 65.000000
36.262803 72.000000
36.282285 90.000000
36.301768 80.000000
36.321250 116.000000
36.340733 83.000000
36.360215 77.000000
36.379697 101.000000
36.399180 127.000000
36.418662 183.000000
36.438144 254.000000
36.457627 500.000000
36.477109 785.000000
36.496592 1144.000000
36.516074 1574.000000
36.535556 1680.000000
36.555039 1374.000000
36.574521 869.000000
36.594003 854.000000
36.613486 891.000000
36.632968 910.000000
36.652450 590.000000
36.671933 288.000000
36.691415 153.000000
36.710898 99.000000
36.730380 89.000000
36.749862 78.000000
36.769345 73.000000
36.788827 64.000000
36.808309 62.000000
36.827792 57.000000
36.847274 64.000000
36.866757 67.000000
36.886239 61.000000
36.905721 60.000000
36.925204 65.000000
36.944686 63.000000
36.964168 62.000000
36.983651 54.000000
37.003133 57.000000
37.022615 54.000000
37.042098 53.000000
37.061580 52.000000
37.081063 46.000000
37.100545 52.000000
37.120027 47.000000
37.139510 62.000000
37.158992 62.000000
37.178474 48.000000
37.197957 62.000000
37.217439 47.000000
37.236922 54.000000
37.256404 46.000000
37.275886 51.000000
37.295369 51.000000
37.314851 36.000000
37.334333 49.000000
37.353816 51.000000
37.373298 58.000000
37.392780 46.000000
37.412263 46.000000
37.431745 49.000000
37.451228 45.000000
37.470710 64.000000
37.490192 48.000000
37.509675 41.000000
37.529157 54.000000
37.548639 38.000000
37.568122 59.000000
37.587604 62.000000
37.607087 54.000000
37.626569 39.000000
37.646051 48.000000
37.665534 47.000000
37.685016 42.000000
37.704498 48.000000
37.723981 42.000000
37.743463 43.000000
37.762945 50.000000
37.782428 51.000000
37.801910 42.000000
37.821393 42.000000
37.840875 54.000000
37.860357 45.000000
37.879840 42.000000
37.899322 47.000000
37.918804 64.000000
37.938287 46.000000
37.957769 48.000000
37.977252 41.000000
37.996734 50.000000
38.016216 45.000000
38.035699 44.000000
38.055181 50.000000
38.074663 42.000000
38.094146 53.000000
38.113628 43.000000
38.133111 41.000000
38.152593 49.000000
38.172075 58.000000
38.191558 48.000000
38.211040 61.000000
38.230522 54.000000
38.250005 39.000000
38.269487 56.000000
38.288969 55.000000
38.308452 52.000000
38.327934 64.000000
38.347417 62.000000
38.366899 37.000000
38.386381 31.000000
38.405864 40.000000
38.425346 51.000000
38.444828 47.000000
38.464311 49.000000
38.483793 49.000000
38.503276 62.000000
38.522758 50.000000
38.542240 53.000000
38.561723 52.000000
38.581205 48.000000
38.600687 46.000000
38.620170 50.000000
38.639652 56.000000
38.659134 67.000000
38.678617 44.000000
38.698099 57.000000
38.717582 49.000000
38.737064 44.000000
38.756546 55.000000
38.776029 49.000000
38.795511 57.000000
38.814993 51.000000
38.834476 46.000000
38.853958 47.000000
38.873441 48.000000
38.892923 52.000000
38.912405 51.000000
38.931888 55.000000
38.951370 57.000000
38.970852 53.000000
38.990335 60.000000
39.009817 53.000000
39.029299 58.000000
39.048782 58.000000
39.068264 64.000000
39.087747 59.000000
39.107229 48.000000
39.126711 51.000000
39.146194 64.000000
39.165676 57.000000
39.185158 73.000000
39.204641 70.000000
39.224123 72.000000
39.243606 64.000000
39.263088 82.000000
39.282570 76.000000
39.302053 88.000000
39.321535 114.000000
39.341017 136.000000
39.360500 262.000000
39.379982 438.000000
39.399464 659.000000
39.418947 954.000000
39.438429 1447.000000
39.457912 1473.000000
39.477394 959.000000
39.496876 616.000000
39.516359 574.000000
39.535841 671.000000
39.555323 719.000000
39.574806 509.000000
39.594288 263.000000
39.613771 142.000000
39.633253 107.000000
39.652735 93.000000
39.672218 72.000000
39.691700 83.000000
39.711182 41.000000
39.730665 72.000000
39.750147 60.000000
39.769630 66.000000
39.789112 53.000000
39.808594 62.000000
39.828077 66.000000
39.847559 49.000000
39.867041 60.000000
39.886524 47.000000
39.906006 67.000000
39.925488 56.000000
39.944971 71.000000
39.964453 59.000000
39.983936 42.000000
40.003418 64.000000
40.022900 66.000000
40.042383 59.000000
40.061865 68.000000
40.081347 61.000000
40.100830 74.000000
40.120312 75.000000
40.139795 73.000000
40.159277 108.000000
40.178759 151.000000
40.198242 228.000000
40.217724 333.000000
40.237206 577.000000
40.256689 745.000000
40.276171 763.000000
40.295653 584.000000
40.315136 378.000000
40.334618 296.000000
40.354101 392.000000
40.373583 420.000000
40.393065 372.000000
40.412548 218.000000
40.432030 126.000000
40.451512 77.000000
40.470995 67.000000
40.490477 63.000000
40.509960 65.000000
40.529442 70.000000
40.548924 58.000000
40.568407 52.000000
40.587889 52.000000
40.607371 48.000000
40.626854 46.000000
40.646336 42.000000
40.665818 52.000000
40.685301 43.000000
40.704783 39.000000
40.724266 55.000000
40.743748 53.000000
40.763230 45.000000
40.782713 44.000000
40.802195 47.000000
40.821677 49.000000
40.841160 43.000000
40.860642 47.000000
40.880125 43.000000
40.899607 53.000000
40.919089 54.000000
40.938572 52.000000
40.958054 59.000000
40.977536 74.000000
40.997019 42.000000
41.016501 56.000000
41.035983 47.000000
41.055466 47.000000
41.074948 44.000000
41.094431 38.000000
41.113913 57.000000
41.133395 32.000000
41.152878 50.000000
41.172360 47.000000
41.191842 48.000000
41.211325 53.000000
41.230807 61.000000
41.250290 60.000000
41.269772 46.000000
41.289254 52.000000
41.308737 53.000000
41.328219 65.000000
41.347701 50.000000
41.367184 50.000000
41.386666 45.000000
41.406149 49.000000
41.425631 45.000000
41.445113 53.000000
41.464596 55.000000
41.484078 40.000000
41.503560 42.000000
41.523043 48.000000
41.542525 48.000000
41.562007 46.000000
41.581490 51.000000
41.600972 67.000000
41.620455 44.000000
41.639937 57.000000
41.659419 52.000000
41.678902 65.000000
41.698384 47.000000
41.717866 50.000000
41.737349 55.000000
41.756831 56.000000
41.776314 37.000000
41.795796 51.000000
41.815278 53.000000
41.834761 42.000000
41.854243 48.000000
41.873725 46.000000
41.893208 50.000000
41.912690 53.000000
41.932172 53.000000
41.951655 39.000000
41.971137 55.000000
41.990620 43.000000
42.010102 50.000000
42.029584 65.000000
42.049067 45.000000
42.068549 61.000000
42.088031 50.000000
42.107514 50.000000
42.126996 59.000000
42.146479 76.000000
42.165961 63.000000
42.185443 62.000000
42.204926 71.000000
42.224408 75.000000
42.243890 90.000000
42.263373 90.000000
42.282855 80.000000
42.302337 122.000000
42.321820 194.000000
42.341302 308.000000
42.360785 430.000000
42.380267 728.000000
42.399749 1068.000000
42.419232 1506.000000
42.438714 1482.000000
42.458196 1105.000000
42.477679 765.000000
42.497161 704.000000
42.516644 773.000000
42.536126 891.000000
42.555608 747.000000
42.575091 483.000000
42.594573 282.000000
42.614055 182.000000
42.633538 117.000000
42.653020 78.000000
42.672502 80.000000
42.691985 85.000000
42.711467 76.000000
42.730950 68.000000
42.750432 52.000000
42.769914 54.000000
42.789397 49.000000
42.808879 70.000000
42.828361 44.000000
42.847844 48.000000
42.867326 58.000000
42.886809 50.000000
42.906291 59.000000
42.925773 54.000000
42.945256 44.000000
42.964738 54.000000
42.984220 44.000000
43.003703 45.000000
43.023185 57.000000
43.042667 41.000000
43.062150 47.000000
43.081632 43.000000
43.101115 56.000000
43.120597 43.000000
43.140079 49.000000
43.159562 60.000000
43.179044 35.000000
43.198526 49.000000
43.218009 44.000000
43.237491 45.000000
43.256974 38.000000
43.276456 58.000000
43.295938 43.000000
43.315421 55.000000
43.334903 41.000000
43.354385 57.000000
43.373868 52.000000
43.393350 50.000000
43.412833 57.000000
43.432315 46.000000
43.451797 36.000000
43.471280 47.000000
43.490762 38.000000
43.510244 44.000000
43.529727 48.000000
43.549209 53.000000
43.568691 45.000000
43.588174 56.000000
43.607656 55.000000
43.627139 50.000000
43.646621 41.000000
43.666103 53.000000
43.685586 41.000000
43.705068 58.000000
43.724550 44.000000
43.744033 48.000000
43.763515 42.000000
43.782998 56.000000
43.802480 51.000000
43.821962 53.000000
43.841445 43.000000
43.860927 54.000000
43.880409 41.000000
43.899892 49.000000
43.919374 44.000000
43.938856 31.000000
43.958339 40.000000
43.977821 45.000000
43.997304 41.000000
44.016786 51.000000
44.036268 39.000000
44.055751 51.000000
44.075233 43.000000
44.094715 42.000000
44.114198 43.000000
44.133680 45.000000
44.153163 42.000000
44.172645 48.000000
44.192127 48.000000
44.211610 39.000000
44.231092 42.000000
44.250574 52.000000
44.270057 45.000000
44.289539 49.000000
44.309021 51.000000
44.328504 52.000000
44.347986 42.000000
44.367469 43.000000
44.386951 56.000000
44.406433 43.000000
44.425916 34.000000
44.445398 48.000000
44.464880 46.000000
44.484363 54.000000
44.503845 37.000000
44.523328 34.000000
44.542810 45.000000
44.562292 46.000000
44.581775 46.000000
44.601257 51.000000
44.620739 45.000000
44.640222 39.000000
44.659704 36.000000
44.679186 43.000000
44.698669 45.000000
44.718151 50.000000
44.737634 50.000000
44.757116 48.000000
44.776598 46.000000
44.796081 42.000000
44.815563 42.000000
44.835045 52.000000
44.854528 46.000000
44.874010 47.000000
44.893493 49.000000
44.912975 50.000000
44.932457 46.000000
44.951940 43.000000
44.971422 39.000000
44.990904 43.000000
45.010387 44.000000
45.029869 51.000000
45.049352 55.000000
45.068834 49.000000
45.088316 49.000000
45.107799 42.000000
45.127281 40.000000
45.146763 45.000000
45.166246 47.000000
45.185728 45.000000
45.205210 43.000000
45.224693 42.000000
45.244175 51.000000
45.263658 52.000000
45.283140 49.000000
45.302622 52.000000
45.322105 46.000000
45.341587 45.000000
45.361069 50.000000
45.380552 40.000000
45.400034 45.000000
45.419517 57.000000
45.438999 48.000000
45.458481 54.000000
45.477964 47.000000
45.497446 55.000000
45.516928 45.000000
45.536411 51.000000
45.555893 64.000000
45.575375 59.000000
45.594858 63.000000
45.614340 61.000000
45.633823 71.000000
45.653305 89.000000
45.672787 133.000000
45.692270 181.000000
45.711752 268.000000
45.731234 359.000000
45.750717 483.000000
45.770199 541.000000
45.789682 480.000000
45.809164 377.000000
45.828646 255.000000
45.848129 246.000000
45.867611 252.000000
45.887093 335.000000
45.906576 279.000000
45.926058 192.000000
45.945540 128.000000
45.965023 109.000000
45.984505 74.000000
46.003988 66.000000
46.023470 46.000000
46.042952 68.000000
46.062435 43.000000
46.081917 50.000000
46.101399 41.000000
46.120882 49.000000
46.140364 36.000000
46.159847 55.000000
46.179329 52.000000
46.198811 42.000000
46.218294 50.000000
46.237776 50.000000
46.257258 48.000000
46.276741 47.000000
46.296223 42.000000
46.315705 38.000000
46.335188 50.000000
46.354670 43.000000
46.374153 37.000000
46.393635 40.000000
46.413117 49.000000
46.432600 53.000000
46.452082 49.000000
46.471564 51.000000
46.491047 50.000000
46.510529 40.000000
46.530012 45.000000
46.549494 45.000000
46.568976 36.000000
46.588459 46.000000
46.607941 51.000000
46.627423 39.000000
46.646906 42.000000
46.666388 59.000000
46.685871 59.000000
46.705353 38.000000
46.724835 44.000000
46.744318 46.000000
46.763800 41.000000
46.783282 48.000000
46.802765 47.000000
46.822247 46.000000
46.841729 39.000000
46.861212 22.000000
46.880694 62.000000
46.900177 45.000000
46.919659 41.000000
46.939141 36.000000
46.958624 41.000000
46.978106 40.000000
46.997588 41.000000
47.017071 26.000000
47.036553 48.000000
47.056036 38.000000
47.075518 42.000000
47.095000 36.000000
47.114483 47.000000
47.133965 52.000000
47.153447 39.000000
47.172930 51.000000
47.192412 49.000000
47.211894 36.000000
47.231377 39.000000
47.250859 39.000000
47.270342 34.000000
47.289824 51.000000
47.309306 39.000000
47.328789 43.000000
47.348271 39.000000
47.367753 45.000000
47.387236 57.000000
47.406718 39.000000
47.426201 42.000000
47.445683 47.000000
47.465165 71.000000
47.484648 71.000000
47.504130 90.000000
47.523612 77.000000
47.543095 58.000000
47.562577 44.000000
47.582059 46.000000
47.601542 45.000000
47.621024 63.000000
47.640507 73.000000
47.659989 58.000000
47.679471 63.000000
47.698954 46.000000
47.718436 48.000000
47.737918 48.000000
47.757401 49.000000
47.776883 31.000000
47.796366 38.000000
47.815848 47.000000
47.835330 42.000000
47.854813 43.000000
47.874295 36.000000
47.893777 41.000000
47.913260 40.000000
47.932742 34.000000
47.952224 52.000000
47.971707 42.000000
47.991189 42.000000
48.010672 28.000000
48.030154 39.000000
48.049636 53.000000
48.069119 35.000000
48.088601 39.000000
48.108083 45.000000
48.127566 36.000000
48.147048 41.000000
48.166531 39.000000
48.186013 54.000000
48.205495 44.000000
48.224978 39.000000
48.244460 46.000000
48.263942 47.000000
48.283425 40.000000
48.302907 56.000000
48.322389 44.000000
48.341872 42.000000
48.361354 47.000000
48.380837 49.000000
48.400319 36.000000
48.419801 43.000000
48.439284 49.000000
48.458766 53.000000
48.478248 58.000000
48.497731 51.000000
48.517213 52.000000
48.536696 50.000000
48.556178 56.000000
48.575660 47.000000
48.595143 46.000000
48.614625 52.000000
48.634107 37.000000
48.653590 46.000000
48.673072 44.000000
48.692555 54.000000
48.712037 49.000000
48.731519 45.000000
48.751002 41.000000
48.770484 47.000000
48.789966 41.000000
48.809449 41.000000
48.828931 39.000000
48.848413 47.000000
48.867896 50.000000
48.887378 47.000000
48.906861 52.000000
48.926343 53.000000
48.945825 47.000000
48.965308 45.000000
48.984790 41.000000
49.004272 43.000000
49.023755 47.000000
49.043237 44.000000
49.062720 60.000000
49.082202 49.000000
49.101684 35.000000
49.121167 49.000000
49.140649 54.000000
49.160131 47.000000
49.179614 54.000000
49.199096 54.000000
49.218578 48.000000
49.238061 37.000000
49.257543 59.000000
49.277026 50.000000
49.296508 46.000000
49.315990 45.000000
49.335473 54.000000
49.354955 43.000000
49.374437 51.000000
49.393920 51.000000
49.413402 35.000000
49.432885 33.000000
49.452367 38.000000
49.471849 46.000000
49.491332 40.000000
49.510814 37.000000
49.530296 51.000000
49.549779 51.000000
49.569261 53.000000
49.588743 52.000000
49.608226 46.000000
49.627708 36.000000
49.647191 48.000000
49.666673 52.000000
49.686155 44.000000
49.705638 54.000000
49.725120 55.000000
49.744602 63.000000
49.764085 54.000000
49.783567 50.000000
49.803050 62.000000
49.822532 66.000000
49.842014 67.000000
49.861497 87.000000
49.880979 79.000000
49.900461 113.000000
49.919944 101.000000
49.939426 98.000000
49.958908 124.000000
49.978391 140.000000
49.997873 223.000000
50.017356 327.000000
50.036838 505.000000
50.056320 813.000000
50.075803 1263.000000
50.095285 1659.000000
50.114767 1791.000000
50.134250 1682.000000
50.153732 1195.000000
50.173215 759.000000
50.192697 689.000000
50.212179 783.000000
50.231662 911.000000
50.251144 975.000000
50.270626 848.000000
50.290109 535.000000
50.309591 310.000000
50.329074 190.000000
50.348556 137.000000
50.368038 106.000000
50.387521 92.000000
50.407003 80.000000
50.426485 78.000000
50.445968 59.000000
50.465450 67.000000
50.484932 55.000000
50.504415 66.000000
50.523897 58.000000
50.543380 99.000000
50.562862 123.000000
50.582344 166.000000
50.601827 134.000000
50.621309 111.000000
50.640791 66.000000
50.660274 68.000000
50.679756 74.000000
50.699239 85.000000
50.718721 72.000000
50.738203 77.000000
50.757686 58.000000
50.777168 66.000000
50.796650 56.000000
50.816133 51.000000
50.835615 55.000000
50.855097 43.000000
50.874580 58.000000
50.894062 46.000000
50.913545 54.000000
50.933027 49.000000
50.952509 59.000000
50.971992 36.000000
50.991474 39.000000
51.010956 32.000000
51.030439 49.000000
51.049921 42.000000
51.069404 34.000000
51.088886 46.000000
51.108368 51.000000
51.127851 34.000000
51.147333 47.000000
51.166815 56.000000
51.186298 37.000000
51.205780 39.000000
51.225262 42.000000
51.244745 38.000000
51.264227 45.000000
51.283710 58.000000
51.303192 42.000000
51.322674 35.000000
51.342157 35.000000
51.361639 33.000000
51.381121 37.000000
51.400604 39.000000
51.420086 52.000000
51.439569 47.000000
51.459051 41.000000
51.478533 52.000000
51.498016 53.000000
51.517498 49.000000
51.536980 51.000000
51.556463 33.000000
51.575945 39.000000
51.595427 42.000000
51.614910 51.000000
51.634392 40.000000
51.653875 32.000000
51.673357 42.000000
51.692839 35.000000
51.712322 43.000000
51.731804 33.000000
51.751286 44.000000
51.770769 29.000000
51.790251 40.000000
51.809734 40.000000
51.829216 40.000000
51.848698 56.000000
51.868181 40.000000
51.887663 40.000000
51.907145 35.000000
51.926628 34.000000
51.946110 53.000000
51.965593 42.000000
51.985075 42.000000
52.004557 40.000000
52.024040 31.000000
52.043522 39.000000
52.063004 27.000000
52.082487 42.000000
52.101969 38.000000
52.121451 51.000000
52.140934 38.000000
52.160416 53.000000
52.179899 45.000000
52.199381 39.000000
52.218863 39.000000
52.238346 35.000000
52.257828 39.000000
52.277310 37.000000
52.296793 45.000000
52.316275 39.000000
52.335758 46.000000
52.355240 40.000000
52.374722 38.000000
52.394205 40.000000
52.413687 42.000000
52.433169 52.000000
52.452652 52.000000
52.472134 36.000000
52.491616 53.000000
52.511099 32.000000
52.530581 39.000000
52.550064 32.000000
52.569546 31.000000
52.589028 39.000000
52.608511 45.000000
52.627993 43.000000
52.647475 34.000000
52.666958 46.000000
52.686440 39.000000
52.705923 45.000000
52.725405 44.000000
52.744887 31.000000
52.764370 46.000000
52.783852 40.000000
52.803334 35.000000
52.822817 27.000000
52.842299 50.000000
52.861781 43.000000
52.881264 40.000000
52.900746 31.000000
52.920229 40.000000
52.939711 36.000000
52.959193 28.000000
52.978676 33.000000
52.998158 38.000000
53.017640 31.000000
53.037123 35.000000
53.056605 37.000000
53.076088 34.000000
53.095570 46.000000
53.115052 37.000000
53.134535 50.000000
53.154017 39.000000
53.173499 40.000000
53.192982 49.000000
53.212464 53.000000
53.231946 47.000000
53.251429 35.000000
53.270911 32.000000
53.290394 45.000000
53.309876 49.000000
53.329358 42.000000
53.348841 36.000000
53.368323 40.000000
53.387805 43.000000
53.407288 40.000000
53.426770 39.000000
53.446253 45.000000
53.465735 37.000000
53.485217 46.000000
53.504700 27.000000
53.524182 41.000000
53.543664 47.000000
53.563147 45.000000
53.582629 45.000000
53.602112 41.000000
53.621594 51.000000
53.641076 53.000000
53.660559 55.000000
53.680041 32.000000
53.699523 50.000000
53.719006 42.000000
53.738488 42.000000
53.757970 45.000000
53.777453 44.000000
53.796935 53.000000
53.816418 45.000000
53.835900 33.000000
53.855382 41.000000
53.874865 45.000000
53.894347 38.000000
53.913829 28.000000
53.933312 36.000000
53.952794 44.000000
53.972277 39.000000
53.991759 46.000000
54.011241 29.000000
54.030724 43.000000
54.050206 47.000000
54.069688 39.000000
54.089171 43.000000
54.108653 40.000000
54.128135 44.000000
54.147618 31.000000
54.167100 47.000000
54.186583 40.000000
54.206065 37.000000
54.225547 45.000000
54.245030 44.000000
54.264512 56.000000
54.283994 51.000000
54.303477 41.000000
54.322959 38.000000
54.342442 41.000000
54.361924 39.000000
54.381406 48.000000
54.400889 34.000000
54.420371 35.000000
54.439853 37.000000
54.459336 32.000000
54.478818 49.000000
54.498300 44.000000
54.517783 41.000000
54.537265 56.000000
54.556748 58.000000
54.576230 46.000000
54.595712 55.000000
54.615195 56.000000
54.634677 54.000000
54.654159 60.000000
54.673642 64.000000
54.693124 63.000000
54.712607 78.000000
54.732089 100.000000
54.751571 145.000000
54.771054 184.000000
54.790536 284.000000
54.810018 413.000000
54.829501 517.000000
54.848983 622.000000
54.868465 647.000000
54.887948 528.000000
54.907430 329.000000
54.926913 221.000000
54.946395 247.000000
54.965877 275.000000
54.985360 282.000000
55.004842 324.000000
55.024324 324.000000
55.043807 208.000000
55.063289 139.000000
55.082772 106.000000
55.102254 76.000000
55.121736 74.000000
55.141219 60.000000
55.160701 73.000000
55.180183 62.000000
55.199666 94.000000
55.219148 94.000000
55.238630 135.000000
55.258113 156.000000
55.277595 227.000000
55.297078 287.000000
55.316560 291.000000
55.336042 225.000000
55.355525 141.000000
55.375007 93.000000
55.394489 116.000000
55.413972 130.000000
55.433454 141.000000
55.452937 148.000000
55.472419 139.000000
55.491901 105.000000
55.511384 75.000000
55.530866 68.000000
55.550348 56.000000
55.569831 46.000000
55.589313 44.000000
55.608796 48.000000
55.628278 40.000000
55.647760 48.000000
55.667243 34.000000
55.686725 44.000000
55.706207 50.000000
55.725690 29.000000
55.745172 36.000000
55.764654 28.000000
55.784137 37.000000
55.803619 25.000000
55.823102 36.000000
55.842584 35.000000
55.862066 37.000000
55.881549 42.000000
55.901031 38.000000
55.920513 29.000000
55.939996 35.000000
55.959478 36.000000
55.978961 38.000000
55.998443 51.000000
56.017925 50.000000
56.037408 43.000000
56.056890 36.000000
56.076372 32.000000
56.095855 46.000000
56.115337 33.000000
56.134819 31.000000
56.154302 30.000000
56.173784 33.000000
56.193267 45.000000
56.212749 42.000000
56.232231 31.000000
56.251714 36.000000
56.271196 37.000000
56.290678 44.000000
56.310161 42.000000
56.329643 35.000000
56.349126 35.000000
56.368608 37.000000
56.388090 26.000000
56.407573 47.000000
56.427055 41.000000
56.446537 42.000000
56.466020 45.000000
56.485502 35.000000
56.504984 36.000000
56.524467 36.000000
56.543949 31.000000
56.563432 37.000000
56.582914 33.000000
56.602396 40.000000
56.621879 33.000000
56.641361 34.000000
56.660843 31.000000
56.680326 39.000000
56.699808 37.000000
56.719291 33.000000
56.738773 27.000000
56.758255 43.000000
56.777738 38.000000
56.797220 35.000000
56.816702 22.000000
56.836185 40.000000
56.855667 31.000000
56.875149 39.000000
56.894632 42.000000
56.914114 42.000000
56.933597 38.000000
56.953079 35.000000
56.972561 32.000000
56.992044 31.000000
57.011526 38.000000
57.031008 32.000000
57.050491 29.000000
57.069973 36.000000
57.089456 39.000000
57.108938 38.000000
57.128420 52.000000
57.147903 51.000000
57.167385 59.000000
57.186867 60.000000
57.206350 61.000000
57.225832 55.000000
57.245315 45.000000
57.264797 47.000000
57.284279 46.000000
57.303762 41.000000
57.323244 60.000000
57.342726 38.000000
57.362209 57.000000
57.381691 58.000000
57.401173 46.000000
57.420656 40.000000
57.440138 36.000000
57.459621 32.000000
57.479103 41.000000
57.498585 46.000000
57.518068 38.000000
57.537550 25.000000
57.557032 37.000000
57.576515 40.000000
57.595997 23.000000
57.615480 49.000000
57.634962 37.000000
57.654444 25.000000
57.673927 38.000000
57.693409 45.000000
57.712891 34.000000
57.732374 38.000000
57.751856 47.000000
57.771338 39.000000
57.790821 43.000000
57.810303 49.000000
57.829786 41.000000
57.849268 39.000000
57.868750 44.000000
57.888233 55.000000
57.907715 32.000000
57.927197 43.000000
57.946680 36.000000
57.966162 46.000000
57.985645 56.000000
58.005127 37.000000
58.024609 34.000000
58.044092 40.000000
58.063574 36.000000
58.083056 38.000000
58.102539 44.000000
58.122021 34.000000
58.141503 30.000000
58.160986 36.000000
58.180468 41.000000
58.199951 36.000000
58.219433 39.000000
58.238915 47.000000
58.258398 38.000000
58.277880 30.000000
58.297362 33.000000
58.316845 36.000000
58.336327 34.000000
58.355810 35.000000
58.375292 49.000000
58.394774 33.000000
58.414257 36.000000
58.433739 44.000000
58.453221 36.000000
58.472704 44.000000
58.492186 33.000000
58.511668 42.000000
58.531151 31.000000
58.550633 43.000000
58.570116 25.000000
58.589598 49.000000
58.609080 43.000000
58.628563 47.000000
58.648045 41.000000
58.667527 27.000000
58.687010 38.000000
58.706492 36.000000
58.725975 43.000000
58.745457 43.000000
58.764939 53.000000
58.784422 33.000000
58.803904 31.000000
58.823386 35.000000
58.842869 45.000000
58.862351 46.000000
58.881834 38.000000
58.901316 43.000000
58.920798 41.000000
58.940281 29.000000
58.959763 43.000000
58.979245 41.000000
58.998728 37.000000
59.018210 41.000000
59.037692 28.000000
59.057175 42.000000
59.076657 53.000000
59.096140 24.000000
59.115622 41.000000
59.135104 42.000000
59.154587 32.000000
59.174069 42.000000
59.193551 36.000000
59.213034 42.000000
59.232516 45.000000
59.251999 45.000000
59.271481 38.000000
59.290963 34.000000
59.310446 37.000000
59.329928 45.000000
59.349410 47.000000
59.368893 46.000000
59.388375 39.000000
59.407857 36.000000
59.427340 52.000000
59.446822 40.000000
59.466305 42.000000
59.485787 42.000000
59.505269 47.000000
59.524752 39.000000
59.544234 44.000000
59.563716 46.000000
59.583199 47.000000
59.602681 46.000000
59.622164 68.000000
59.641646 56.000000
59.661128 70.000000
59.680611 71.000000
59.700093 76.000000
59.719575 95.000000
59.739058 83.000000
59.758540 114.000000
59.778022 122.000000
59.797505 157.000000
59.816987 229.000000
59.836470 307.000000
59.855952 499.000000
59.875434 741.000000
59.894917 1129.000000
59.914399 1471.000000
59.933881 1603.000000
59.953364 1591.000000
59.972846 1141.000000
59.992329 762.000000
60.011811 571.000000
60.031293 524.000000
60.050776 584.000000
60.070258 792.000000
60.089740 843.000000
60.109223 861.000000
60.128705 699.000000
60.148187 449.000000
60.167670 274.000000
60.187152 187.000000
60.206635 159.000000
60.226117 85.000000
60.245599 84.000000
60.265082 79.000000
60.284564 84.000000
60.304046 59.000000
60.323529 63.000000
60.343011 58.000000
60.362494 55.000000
60.381976 50.000000
60.401458 45.000000
60.420941 57.000000
60.440423 46.000000
60.459905 54.000000
60.479388 48.000000
60.498870 36.000000
60.518352 42.000000
60.537835 49.000000
60.557317 38.000000
60.576800 33.000000
60.596282 44.000000
60.615764 40.000000
60.635247 44.000000
60.654729 34.000000
60.674211 52.000000
60.693694 44.000000
60.713176 38.000000
60.732659 38.000000
60.752141 48.000000
60.771623 47.000000
60.791106 31.000000
60.810588 47.000000
60.830070 46.000000
60.849553 48.000000
60.869035 25.000000
60.888518 36.000000
60.908000 46.000000
60.927482 42.000000
60.946965 37.000000
60.966447 44.000000
60.985929 36.000000
61.005412 30.000000
61.024894 48.000000
61.044376 34.000000
61.063859 33.000000
61.083341 43.000000
61.102824 36.000000
61.122306 35.000000
61.141788 40.000000
61.161271 39.000000
61.180753 33.000000
61.200235 35.000000
61.219718 38.000000
61.239200 34.000000
61.258683 39.000000
61.278165 33.000000
61.297647 33.000000
61.317130 34.000000
61.336612 42.000000
61.356094 30.000000
61.375577 34.000000
61.395059 46.000000
61.414541 44.000000
61.434024 34.000000
61.453506 36.000000
61.472989 45.000000
61.492471 32.000000
61.511953 39.000000
61.531436 32.000000
61.550918 33.000000
61.570400 37.000000
61.589883 35.000000
61.609365 40.000000
61.628848 37.000000
61.648330 38.000000
61.667812 30.000000
61.687295 44.000000
61.706777 42.000000
61.726259 46.000000
61.745742 39.000000
61.765224 35.000000
61.784706 49.000000
61.804189 30.000000
61.823671 28.000000
61.843154 34.000000
61.862636 35.000000
61.882118 40.000000
61.901601 34.000000
61.921083 36.000000
61.940565 47.000000
61.960048 40.000000
61.979530 42.000000
61.999013 22.000000
62.018495 38.000000
62.037977 32.000000
62.057460 40.000000
62.076942 31.000000
62.096424 34.000000
62.115907 39.000000
62.135389 39.000000
62.154871 35.000000
62.174354 41.000000
62.193836 31.000000
62.213319 41.000000
62.232801 42.000000
62.252283 23.000000
62.271766 41.000000
62.291248 26.000000
62.310730 40.000000
62.330213 29.000000
62.349695 34.000000
62.369178 42.000000
62.388660 33.000000
62.408142 33.000000
62.427625 31.000000
62.447107 34.000000
62.466589 38.000000
62.486072 33.000000
62.505554 40.000000
62.525037 36.000000
62.544519 31.000000
62.564001 29.000000
62.583484 46.000000
62.602966 39.000000
62.622448 37.000000
62.641931 38.000000
62.661413 49.000000
62.680895 37.000000
62.700378 30.000000
62.719860 31.000000
62.739343 37.000000
62.758825 47.000000
62.778307 38.000000
62.797790 36.000000
62.817272 42.000000
62.836754 29.000000
62.856237 41.000000
62.875719 26.000000
62.895202 28.000000
62.914684 40.000000
62.934166 28.000000
62.953649 34.000000
62.973131 44.000000
62.992613 41.000000
63.012096 29.000000
63.031578 41.000000
63.051060 43.000000
63.070543 22.000000
63.090025 40.000000
63.109508 41.000000
63.128990 31.000000
63.148472 33.000000
63.167955 37.000000
63.187437 35.000000
63.206919 45.000000
63.226402 28.000000
63.245884 36.000000
63.265367 35.000000
63.284849 37.000000
63.304331 31.000000
63.323814 32.000000
63.343296 32.000000
63.362778 34.000000
63.382261 38.000000
63.401743 38.000000
63.421225 36.000000
63.440708 33.000000
63.460190 28.000000
63.479673 34.000000
63.499155 39.000000
63.518637 46.000000
63.538120 40.000000
63.557602 34.000000
63.577084 27.000000
63.596567 33.000000
63.616049 43.000000
63.635532 36.000000
63.655014 38.000000
63.674496 35.000000
63.693979 38.000000
63.713461 28.000000
63.732943 48.000000
63.752426 40.000000
63.771908 35.000000
63.791390 40.000000
63.810873 35.000000
63.830355 44.000000
63.849838 35.000000
63.869320 53.000000
63.888802 59.000000
63.908285 58.000000
63.927767 83.000000
63.947249 106.000000
63.966732 167.000000
63.986214 220.000000
64.005697 221.000000
64.025179 197.000000
64.044661 181.000000
64.064144 126.000000
64.083626 112.000000
64.103108 90.000000
64.122591 97.000000
64.142073 104.000000
64.161556 113.000000
64.181038 135.000000
64.200520 137.000000
64.220003 113.000000
64.239485 82.000000
64.258967 65.000000
64.278450 54.000000
64.297932 56.000000
64.317414 47.000000
64.336897 51.000000
64.356379 38.000000
64.375862 38.000000
64.395344 38.000000
64.414826 36.000000
64.434309 42.000000
64.453791 32.000000
64.473273 30.000000
64.492756 31.000000
64.512238 30.000000
64.531721 38.000000
64.551203 38.000000
64.570685 25.000000
64.590168 42.000000
64.609650 38.000000
64.629132 43.000000
64.648615 33.000000
64.668097 46.000000
64.687579 37.000000
64.707062 41.000000
64.726544 41.000000
64.746027 35.000000
64.765509 34.000000
64.784991 40.000000
64.804474 47.000000
64.823956 31.000000
64.843438 32.000000
64.862921 48.000000
64.882403 37.000000
64.901886 33.000000
64.921368 37.000000
64.940850 45.000000
64.960333 41.000000
64.979815 44.000000
64.999297 33.000000
65.018780 41.000000
65.038262 40.000000
65.057744 38.000000
65.077227 33.000000
65.096709 29.000000
65.116192 36.000000
65.135674 30.000000
65.155156 29.000000
65.174639 31.000000
65.194121 33.000000
65.213603 30.000000
65.233086 34.000000
65.252568 31.000000
65.272051 33.000000
65.291533 34.000000
65.311015 30.000000
65.330498 44.000000
65.349980 31.000000
65.369462 31.000000
65.388945 33.000000
65.408427 35.000000
65.427909 35.000000
65.447392 38.000000
65.466874 39.000000
65.486357 45.000000
65.505839 42.000000
65.525321 50.000000
65.544804 46.000000
65.564286 62.000000
65.583768 52.000000
65.603251 64.000000
65.622733 59.000000
65.642216 61.000000
65.661698 81.000000
65.681180 85.000000
65.700663 90.000000
65.720145 135.000000
65.739627 153.000000
65.759110 165.000000
65.778592 165.000000
65.798075 135.000000
65.817557 119.000000
65.837039 81.000000
65.856522 84.000000
65.876004 75.000000
65.895486 86.000000
65.914969 104.000000
65.934451 100.000000
65.953933 114.000000
65.973416 117.000000
65.992898 89.000000
66.012381 77.000000
66.031863 64.000000
66.051345 46.000000
66.070828 45.000000
66.090310 45.000000
66.109792 45.000000
66.129275 39.000000
66.148757 47.000000
66.168240 38.000000
66.187722 39.000000
66.207204 47.000000
66.226687 44.000000
66.246169 40.000000
66.265651 34.000000
66.285134 40.000000
66.304616 39.000000
66.324098 36.000000
66.343581 37.000000
66.363063 46.000000
66.382546 47.000000
66.402028 32.000000
66.421510 40.000000
66.440993 31.000000
66.460475 45.000000
66.479957 32.000000
66.499440 40.000000
66.518922 43.000000
66.538405 23.000000
66.557887 40.000000
66.577369 51.000000
66.596852 32.000000
66.616334 35.000000
66.635816 38.000000
66.655299 37.000000
66.674781 28.000000
66.694263 37.000000
66.713746 38.000000
66.733228 37.000000
66.752711 43.000000
66.772193 45.000000
66.791675 41.000000
66.811158 43.000000
66.830640 40.000000
66.850122 32.000000
66.869605 36.000000
66.889087 36.000000
66.908570 38.000000
66.928052 49.000000
66.947534 23.000000
66.967017 32.000000
66.986499 42.000000
67.005981 36.000000
67.025464 35.000000
67.044946 49.000000
67.064428 31.000000
67.083911 46.000000
67.103393 45.000000
67.122876 45.000000
67.142358 35.000000
67.161840 39.000000
67.181323 38.000000
67.200805 50.000000
67.220287 45.000000
67.239770 44.000000
67.259252 50.000000
67.278735 42.000000
67.298217 52.000000
67.317699 42.000000
67.337182 44.000000
67.356664 45.000000
67.376146 43.000000
67.395629 52.000000
67.415111 58.000000
67.434593 53.000000
67.454076 57.000000
67.473558 60.000000
67.493041 58.000000
67.512523 46.000000
67.532005 82.000000
67.551488 75.000000
67.570970 103.000000
67.590452 129.000000
67.609935 175.000000
67.629417 239.000000
67.648900 328.000000
67.668382 468.000000
67.687864 663.000000
67.707347 846.000000
67.726829 824.000000
67.746311 771.000000
67.765794 558.000000
67.785276 343.000000
67.804759 253.000000
67.824241 232.000000
67.843723 266.000000
67.863206 316.000000
67.882688 406.000000
67.902170 460.000000
67.921653 465.000000
67.941135 381.000000
67.960617 339.000000
67.980100 240.000000
67.999582 267.000000
68.019065 268.000000
68.038547 272.000000
68.058029 436.000000
68.077512 527.000000
68.096994 656.000000
68.116476 751.000000
68.135959 755.000000
68.155441 629.000000
68.174924 456.000000
68.194406 386.000000
68.213888 443.000000
68.233371 491.000000
68.252853 612.000000
68.272335 765.000000
68.291818 835.000000
68.311300 784.000000
68.330782 687.000000
68.350265 477.000000
68.369747 366.000000
68.389230 284.000000
68.408712 229.000000
68.428194 255.000000
68.447677 280.000000
68.467159 316.000000
68.486641 306.000000
68.506124 255.000000
68.525606 212.000000
68.545089 151.000000
68.564571 127.000000
68.584053 85.000000
68.603536 70.000000
68.623018 70.000000
68.642500 73.000000
68.661983 47.000000
68.681465 65.000000
68.700947 45.000000
68.720430 37.000000
68.739912 42.000000
68.759395 51.000000
68.778877 44.000000
68.798359 55.000000
68.817842 43.000000
68.837324 42.000000
68.856806 48.000000
68.876289 31.000000
68.895771 39.000000
68.915254 48.000000
68.934736 36.000000
68.954218 42.000000
68.973701 32.000000
68.993183 33.000000
69.012665 35.000000
69.032148 33.000000
69.051630 41.000000
69.071112 37.000000
69.090595 41.000000
69.110077 39.000000
69.129560 38.000000
69.149042 55.000000
69.168524 33.000000
69.188007 34.000000
69.207489 38.000000
69.226971 39.000000
69.246454 42.000000
69.265936 49.000000
69.285419 30.000000
69.304901 38.000000
69.324383 44.000000
69.343866 34.000000
69.363348 34.000000
69.382830 36.000000
69.402313 32.000000
69.421795 28.000000
69.441278 39.000000
69.460760 32.000000
69.480242 37.000000
69.499725 34.000000
69.519207 38.000000
69.538689 42.000000
69.558172 38.000000
69.577654 37.000000
69.597136 19.000000
69.616619 47.000000
69.636101 49.000000
69.655584 38.000000
69.675066 36.000000
69.694548 39.000000
69.714031 30.000000
69.733513 38.000000
69.752995 26.000000
69.772478 33.000000
69.791960 46.000000
69.811443 37.000000
69.830925 31.000000
69.850407 33.000000
69.869890 39.000000
69.889372 41.000000
69.908854 39.000000
69.928337 45.000000
69.947819 41.000000
69.967301 37.000000
69.986784 36.000000
70.006266 29.000000
70.025749 32.000000
