4.000000 113.000000
4.019482 88.000000
4.038965 82.000000
4.058447 79.000000
4.077929 100.000000
4.097412 83.000000
4.116894 97.000000
4.136377 81.000000
4.155859 91.000000
4.175341 90.000000
4.194824 67.000000
4.214306 90.000000
4.233788 78.000000
4.253271 77.000000
4.272753 64.000000
4.292236 92.000000
4.311718 81.000000
4.331200 63.000000
4.350683 65.000000
4.370165 85.000000
4.389647 70.000000
4.409130 74.000000
4.428612 73.000000
4.448094 72.000000
4.467577 76.000000
4.487059 64.000000
4.506542 65.000000
4.526024 64.000000
4.545506 53.000000
4.564989 62.000000
4.584471 62.000000
4.603953 82.000000
4.623436 70.000000
4.642918 68.000000
4.662401 57.000000
4.681883 54.000000
4.701365 62.000000
4.720848 62.000000
4.740330 65.000000
4.759812 58.000000
4.779295 63.000000
4.798777 56.000000
4.818259 59.000000
4.837742 52.000000
4.857224 51.000000
4.876707 42.000000
4.896189 54.000000
4.915671 60.000000
4.935154 57.000000
4.954636 66.000000
4.974118 47.000000
4.993601 54.000000
5.013083 44.000000
5.032566 44.000000
5.052048 43.000000
5.071530 50.000000
5.091013 53.000000
5.110495 53.000000
5.129977 48.000000
5.149460 42.000000
5.168942 49.000000
5.188425 47.000000
5.207907 48.000000
5.227389 40.000000
5.246872 49.000000
5.266354 56.000000
5.285836 61.000000
5.305319 45.000000
5.324801 43.000000
5.344283 49.000000
5.363766 44.000000
5.383248 48.000000
5.402731 46.000000
5.422213 48.000000
5.441695 40.000000
5.461178 63.000000
5.480660 44.000000
5.500142 47.000000
5.519625 55.000000
5.539107 51.000000
5.558590 46.000000
5.578072 48.000000
5.597554 44.000000
5.617037 47.000000
5.636519 39.000000
5.656001 45.000000
5.675484 40.000000
5.694966 43.000000
5.714448 55.000000
5.733931 42.000000
5.753413 40.000000
5.772896 41.000000
5.792378 38.000000
5.811860 57.000000
5.831343 38.000000
5.850825 35.000000
5.870307 42.000000
5.889790 44.000000
5.909272 40.000000
5.928755 35.000000
5.948237 36.000000
5.967719 49.000000
5.987202 37.000000
6.006684 48.000000
6.026166 44.000000
6.045649 42.000000
6.065131 48.000000
6.084613 46.000000
6.104096 33.000000
6.123578 58.000000
6.143061 37.000000
6.162543 42.000000
6.182025 49.000000
6.201508 37.000000
6.220990 44.000000
6.240472 43.000000
6.259955 28.000000
6.279437 39.000000
6.298920 38.000000
6.318402 49.000000
6.337884 35.000000
6.357367 45.000000
6.376849 36.000000
6.396331 44.000000
6.415814 37.000000
6.435296 33.000000
6.454778 37.000000
6.474261 35.000000
6.493743 48.000000
6.513226 37.000000
6.532708 26.000000
6.552190 27.000000
6.571673 46.000000
6.591155 35.000000
6.610637 42.000000
6.630120 48.000000
6.649602 33.000000
6.669085 35.000000
6.688567 35.000000
6.708049 31.000000
6.727532 34.000000
6.747014 33.000000
6.766496 46.000000
6.785979 31.000000
6.805461 35.000000
6.824944 39.000000
6.844426 32.000000
6.863908 35.000000
6.883391 30.000000
6.902873 28.000000
6.922355 32.000000
6.941838 35.000000
6.961320 30.000000
6.980802 21.000000
7.000285 35.000000
7.019767 30.000000
7.039250 27.000000
7.058732 30.000000
7.078214 36.000000
7.097697 28.000000
7.117179 30.000000
7.136661 39.000000
7.156144 35.000000
7.175626 28.000000
7.195109 26.000000
7.214591 33.000000
7.234073 27.000000
7.253556 24.000000
7.273038 25.000000
7.292520 42.000000
7.312003 38.000000
7.331485 24.000000
7.350967 27.000000
7.370450 27.000000
7.389932 33.000000
7.409415 31.000000
7.428897 34.000000
7.448379 38.000000
7.467862 29.000000
7.487344 36.000000
7.506826 28.000000
7.526309 30.000000
7.545791 29.000000
7.565274 34.000000
7.584756 23.000000
7.604238 27.000000
7.623721 27.000000
7.643203 29.000000
7.662685 29.000000
7.682168 32.000000
7.701650 21.000000
7.721132 26.000000
7.740615 39.000000
7.760097 28.000000
7.779580 31.000000
7.799062 32.000000
7.818544 30.000000
7.838027 28.000000
7.857509 26.000000
7.876991 28.000000
7.896474 39.000000
7.915956 26.000000
7.935439 19.000000
7.954921 26.000000
7.974403 32.000000
7.993886 27.000000
8.013368 31.000000
8.032850 29.000000
8.052333 34.000000
8.071815 20.000000
8.091297 32.000000
8.110780 36.000000
8.130262 24.000000
8.149745 33.000000
8.169227 33.000000
8.188709 31.000000
8.208192 33.000000
8.227674 22.000000
8.247156 32.000000
8.266639 37.000000
8.286121 34.000000
8.305604 28.000000
8.325086 27.000000
8.344568 28.000000
8.364051 34.000000
8.383533 24.000000
8.403015 34.000000
8.422498 27.000000
8.441980 33.000000
8.461463 29.000000
8.480945 31.000000
8.500427 22.000000
8.519910 30.000000
8.539392 34.000000
8.558874 29.000000
8.578357 30.000000
8.597839 25.000000
8.617321 38.000000
8.636804 26.000000
8.656286 26.000000
8.675769 29.000000
8.695251 28.000000
8.714733 24.000000
8.734216 45.000000
8.753698 40.000000
8.773180 29.000000
8.792663 26.000000
8.812145 30.000000
8.831628 29.000000
8.851110 33.000000
8.870592 28.000000
8.890075 32.000000
8.909557 29.000000
8.929039 22.000000
8.948522 24.000000
8.968004 23.000000
8.987486 33.000000
9.006969 21.000000
9.026451 30.000000
9.045934 26.000000
9.065416 28.000000
9.084898 32.000000
9.104381 24.000000
9.123863 32.000000
9.143345 26.000000
9.162828 18.000000
9.182310 27.000000
9.201793 35.000000
9.221275 20.000000
9.240757 23.000000
9.260240 34.000000
9.279722 24.000000
9.299204 25.000000
9.318687 25.000000
9.338169 28.000000
9.357651 26.000000
9.377134 16.000000
9.396616 39.000000
9.416099 18.000000
9.435581 31.000000
9.455063 19.000000
9.474546 31.000000
9.494028 22.000000
9.513510 34.000000
9.532993 35.000000
9.552475 20.000000
9.571958 23.000000
9.591440 24.000000
9.610922 19.000000
9.630405 30.000000
9.649887 18.000000
9.669369 33.000000
9.688852 26.000000
9.708334 14.000000
9.727816 29.000000
9.747299 27.000000
9.766781 24.000000
9.786264 26.000000
9.805746 18.000000
9.825228 19.000000
9.844711 18.000000
9.864193 24.000000
9.883675 30.000000
9.903158 22.000000
9.922640 21.000000
9.942123 29.000000
9.961605 22.000000
9.981087 26.000000
10.000570 22.000000
10.020052 31.000000
10.039534 36.000000
10.059017 29.000000
10.078499 21.000000
10.097982 24.000000
10.117464 21.000000
10.136946 15.000000
10.156429 25.000000
10.175911 32.000000
10.195393 32.000000
10.214876 24.000000
10.234358 27.000000
10.253840 26.000000
10.273323 26.000000
10.292805 21.000000
10.312288 21.000000
10.331770 16.000000
10.351252 30.000000
10.370735 29.000000
10.390217 20.000000
10.409699 18.000000
10.429182 34.000000
10.448664 28.000000
10.468147 14.000000
10.487629 25.000000
10.507111 31.000000
10.526594 21.000000
10.546076 30.000000
10.565558 18.000000
10.585041 22.000000
10.604523 26.000000
10.624005 18.000000
10.643488 27.000000
10.662970 31.000000
10.682453 23.000000
10.701935 31.000000
10.721417 25.000000
10.740900 23.000000
10.760382 25.000000
10.779864 32.000000
10.799347 28.000000
10.818829 34.000000
10.838312 24.000000
10.857794 22.000000
10.877276 16.000000
10.896759 23.000000
10.916241 21.000000
10.935723 18.000000
10.955206 19.000000
10.974688 23.000000
10.994170 28.000000
11.013653 24.000000
11.033135 24.000000
11.052618 25.000000
11.072100 19.000000
11.091582 34.000000
11.111065 31.000000
11.130547 25.000000
11.150029 20.000000
11.169512 28.000000
11.188994 29.000000
11.208477 23.000000
11.227959 19.000000
11.247441 14.000000
11.266924 31.000000
11.286406 19.000000
11.305888 19.000000
11.325371 18.000000
11.344853 22.000000
11.364335 14.000000
11.383818 24.000000
11.403300 21.000000
11.422783 14.000000
11.442265 34.000000
11.461747 19.000000
11.481230 30.000000
11.500712 22.000000
11.520194 24.000000
11.539677 24.000000
11.559159 24.000000
11.578642 21.000000
11.598124 22.000000
11.617606 18.000000
11.637089 20.000000
11.656571 23.000000
11.676053 19.000000
11.695536 22.000000
11.715018 14.000000
11.734500 30.000000
11.753983 24.000000
11.773465 22.000000
11.792948 16.000000
11.812430 16.000000
11.831912 20.000000
11.851395 15.000000
11.870877 32.000000
11.890359 23.000000
11.909842 26.000000
11.929324 19.000000
11.948807 24.000000
11.968289 22.000000
11.987771 30.000000
12.007254 25.000000
12.026736 20.000000
12.046218 20.000000
12.065701 23.000000
12.085183 22.000000
12.104666 32.000000
12.124148 15.000000
12.143630 19.000000
12.163113 21.000000
12.182595 17.000000
12.202077 16.000000
12.221560 29.000000
12.241042 21.000000
12.260524 17.000000
12.280007 15.000000
12.299489 21.000000
12.318972 22.000000
12.338454 12.000000
12.357936 16.000000
12.377419 16.000000
12.396901 20.000000
12.416383 23.000000
12.435866 24.000000
12.455348 20.000000
12.474831 23.000000
12.494313 15.000000
12.513795 14.000000
12.533278 22.000000
12.552760 18.000000
12.572242 20.000000
12.591725 22.000000
12.611207 15.000000
12.630689 24.000000
12.650172 22.000000
12.669654 24.000000
12.689137 24.000000
12.708619 31.000000
12.728101 22.000000
12.747584 17.000000
12.767066 21.000000
12.786548 24.000000
12.806031 22.000000
12.825513 26.000000
12.844996 27.000000
12.864478 17.000000
12.883960 17.000000
12.903443 24.000000
12.922925 19.000000
12.942407 23.000000
12.961890 20.000000
12.981372 26.000000
13.000854 21.000000
13.020337 18.000000
13.039819 25.000000
13.059302 18.000000
13.078784 24.000000
13.098266 24.000000
13.117749 20.000000
13.137231 14.000000
13.156713 21.000000
13.176196 11.000000
13.195678 7.000000
13.215161 26.000000
13.234643 27.000000
13.254125 20.000000
13.273608 29.000000
13.293090 13.000000
13.312572 22.000000
13.332055 14.000000
13.351537 17.000000
13.371019 13.000000
13.390502 11.000000
13.409984 19.000000
13.429467 19.000000
13.448949 19.000000
13.468431 26.000000
13.487914 19.000000
13.507396 23.000000
13.526878 21.000000
13.546361 28.000000
13.565843 25.000000
13.585326 23.000000
13.604808 17.000000
13.624290 9.000000
13.643773 10.000000
13.663255 23.000000
13.682737 15.000000
13.702220 22.000000
13.721702 19.000000
13.741185 16.000000
13.760667 19.000000
13.780149 15.000000
13.799632 20.000000
13.819114 14.000000
13.838596 13.000000
13.858079 15.000000
13.877561 24.000000
13.897043 23.000000
13.916526 17.000000
13.936008 20.000000
13.955491 16.000000
13.974973 18.000000
13.994455 10.000000
14.013938 23.000000
14.033420 17.000000
14.052902 15.000000
14.072385 28.000000
14.091867 13.000000
14.111350 19.000000
14.130832 19.000000
14.150314 22.000000
14.169797 17.000000
14.189279 21.000000
14.208761 10.000000
14.228244 15.000000
14.247726 16.000000
14.267208 25.000000
14.286691 17.000000
14.306173 12.000000
14.325656 16.000000
14.345138 22.000000
14.364620 22.000000
14.384103 13.000000
14.403585 20.000000
14.423067 14.000000
14.442550 21.000000
14.462032 21.000000
14.481515 18.000000
14.500997 24.000000
14.520479 36.000000
14.539962 17.000000
14.559444 13.000000
14.578926 16.000000
14.598409 22.000000
14.617891 17.000000
14.637373 9.000000
14.656856 21.000000
14.676338 24.000000
14.695821 15.000000
14.715303 13.000000
14.734785 13.000000
14.754268 16.000000
14.773750 17.000000
14.793232 17.000000
14.812715 17.000000
14.832197 13.000000
14.851680 8.000000
14.871162 12.000000
14.890644 14.000000
14.910127 14.000000
14.929609 15.000000
14.949091 18.000000
14.968574 25.000000
14.988056 16.000000
15.007538 16.000000
15.027021 12.000000
15.046503 19.000000
15.065986 15.000000
15.085468 16.000000
15.104950 15.000000
15.124433 14.000000
15.143915 16.000000
15.163397 14.000000
15.182880 17.000000
15.202362 16.000000
15.221845 19.000000
15.241327 16.000000
15.260809 22.000000
15.280292 24.000000
15.299774 15.000000
15.319256 16.000000
15.338739 15.000000
15.358221 21.000000
15.377704 11.000000
15.397186 14.000000
15.416668 20.000000
15.436151 8.000000
15.455633 14.000000
15.475115 22.000000
15.494598 19.000000
15.514080 27.000000
15.533562 10.000000
15.553045 19.000000
15.572527 12.000000
15.592010 14.000000
15.611492 14.000000
15.630974 9.000000
15.650457 12.000000
15.669939 12.000000
15.689421 17.000000
15.708904 24.000000
15.728386 12.000000
15.747869 15.000000
15.767351 17.000000
15.786833 14.000000
15.806316 16.000000
15.825798 16.000000
15.845280 12.000000
15.864763 13.000000
15.884245 18.000000
15.903727 12.000000
15.923210 15.000000
15.942692 10.000000
15.962175 7.000000
15.981657 19.000000
16.001139 19.000000
16.020622 10.000000
16.040104 15.000000
16.059586 15.000000
16.079069 20.000000
16.098551 9.000000
16.118034 16.000000
16.137516 17.000000
16.156998 18.000000
16.176481 11.000000
16.195963 12.000000
16.215445 11.000000
16.234928 14.000000
16.254410 13.000000
16.273892 8.000000
16.293375 14.000000
16.312857 17.000000
16.332340 14.000000
16.351822 15.000000
16.371304 17.000000
16.390787 18.000000
16.410269 14.000000
16.429751 20.000000
16.449234 10.000000
16.468716 16.000000
16.488199 19.000000
16.507681 15.000000
16.527163 12.000000
16.546646 17.000000
16.566128 17.000000
16.585610 9.000000
16.605093 16.000000
16.624575 11.000000
16.644057 18.000000
16.663540 12.000000
16.683022 10.000000
16.702505 9.000000
16.721987 19.000000
16.741469 19.000000
16.760952 18.000000
16.780434 12.000000
16.799916 15.000000
16.819399 14.000000
16.838881 19.000000
16.858364 17.000000
16.877846 18.000000
16.897328 16.000000
16.916811 11.000000
16.936293 15.000000
16.955775 15.000000
16.975258 23.000000
16.994740 13.000000
17.014222 15.000000
17.033705 11.000000
17.053187 12.000000
17.072670 8.000000
17.092152 16.000000
17.111634 12.000000
17.131117 19.000000
17.150599 11.000000
17.170081 22.000000
17.189564 20.000000
17.209046 12.000000
17.228529 10.000000
17.248011 17.000000
17.267493 7.000000
17.286976 10.000000
17.306458 13.000000
17.325940 11.000000
17.345423 9.000000
17.364905 12.000000
17.384388 11.000000
17.403870 10.000000
17.423352 18.000000
17.442835 13.000000
17.462317 14.000000
17.481799 12.000000
17.501282 10.000000
17.520764 9.000000
17.540246 17.000000
17.559729 14.000000
17.579211 11.000000
17.598694 16.000000
17.618176 14.000000
17.637658 24.000000
17.657141 18.000000
17.676623 12.000000
17.696105 19.000000
17.715588 17.000000
17.735070 15.000000
17.754553 14.000000
17.774035 15.000000
17.793517 19.000000
17.813000 12.000000
17.832482 14.000000
17.851964 12.000000
17.871447 13.000000
17.890929 6.000000
17.910411 12.000000
17.929894 8.000000
17.949376 14.000000
17.968859 10.000000
17.988341 12.000000
18.007823 11.000000
18.027306 8.000000
18.046788 22.000000
18.066270 8.000000
18.085753 16.000000
18.105235 11.000000
18.124718 17.000000
18.144200 12.000000
18.163682 12.000000
18.183165 18.000000
18.202647 9.000000
18.222129 12.000000
18.241612 12.000000
18.261094 22.000000
18.280576 13.000000
18.300059 11.000000
18.319541 16.000000
18.339024 12.000000
18.358506 12.000000
18.377988 14.000000
18.397471 12.000000
18.416953 10.000000
18.436435 16.000000
18.455918 14.000000
18.475400 15.000000
18.494883 14.000000
18.514365 15.000000
18.533847 18.000000
18.553330 14.000000
18.572812 12.000000
18.592294 15.000000
18.611777 8.000000
18.631259 8.000000
18.650741 14.000000
18.670224 10.000000
18.689706 12.000000
18.709189 14.000000
18.728671 15.000000
18.748153 16.000000
18.767636 16.000000
18.787118 18.000000
18.806600 13.000000
18.826083 11.000000
18.845565 15.000000
18.865048 15.000000
18.884530 10.000000
18.904012 10.000000
18.923495 17.000000
18.942977 16.000000
18.962459 9.000000
18.981942 20.000000
19.001424 10.000000
19.020907 8.000000
19.040389 10.000000
19.059871 13.000000
19.079354 15.000000
19.098836 9.000000
19.118318 18.000000
19.137801 11.000000
19.157283 13.000000
19.176765 9.000000
19.196248 18.000000
19.215730 15.000000
19.235213 16.000000
19.254695 4.000000
19.274177 9.000000
19.293660 8.000000
19.313142 20.000000
19.332624 11.000000
19.352107 24.000000
19.371589 13.000000
19.391072 11.000000
19.410554 12.000000
19.430036 9.000000
19.449519 13.000000
19.469001 17.000000
19.488483 17.000000
19.507966 16.000000
19.527448 8.000000
19.546930 9.000000
19.566413 7.000000
19.585895 21.000000
19.605378 12.000000
19.624860 8.000000
19.644342 10.000000
19.663825 13.000000
19.683307 8.000000
19.702789 15.000000
19.722272 12.000000
19.741754 9.000000
19.761237 11.000000
19.780719 9.000000
19.800201 11.000000
19.819684 12.000000
19.839166 9.000000
19.858648 9.000000
19.878131 10.000000
19.897613 13.000000
19.917095 14.000000
19.936578 11.000000
19.956060 17.000000
19.975543 12.000000
19.995025 10.000000
20.014507 11.000000
20.033990 4.000000
20.053472 13.000000
20.072954 10.000000
20.092437 12.000000
20.111919 19.000000
20.131402 13.000000
20.150884 28.000000
20.170366 19.000000
20.189849 20.000000
20.209331 17.000000
20.228813 21.000000
20.248296 10.000000
20.267778 10.000000
20.287260 19.000000
20.306743 11.000000
20.326225 13.000000
20.345708 20.000000
20.365190 21.000000
20.384672 20.000000
20.404155 17.000000
20.423637 23.000000
20.443119 25.000000
20.462602 20.000000
20.482084 16.000000
20.501567 16.000000
20.521049 19.000000
20.540531 23.000000
20.560014 21.000000
20.579496 20.000000
20.598978 19.000000
20.618461 24.000000
20.637943 20.000000
20.657426 25.000000
20.676908 42.000000
20.696390 46.000000
20.715873 64.000000
20.735355 112.000000
20.754837 202.000000
20.774320 323.000000
20.793802 548.000000
20.813284 877.000000
20.832767 1215.000000
20.852249 1057.000000
20.871732 761.000000
20.891214 632.000000
20.910696 344.000000
20.930179 129.000000
20.949661 69.000000
20.969143 40.000000
20.988626 36.000000
21.008108 33.000000
21.027591 25.000000
21.047073 18.000000
21.066555 16.000000
21.086038 20.000000
21.105520 20.000000
21.125002 24.000000
21.144485 21.000000
21.163967 14.000000
21.183449 16.000000
21.202932 17.000000
21.222414 14.000000
21.241897 14.000000
21.261379 17.000000
21.280861 14.000000
21.300344 21.000000
21.319826 9.000000
21.339308 13.000000
21.358791 10.000000
21.378273 20.000000
21.397756 14.000000
21.417238 12.000000
21.436720 12.000000
21.456203 15.000000
21.475685 18.000000
21.495167 25.000000
21.514650 14.000000
21.534132 13.000000
21.553614 21.000000
21.573097 20.000000
21.592579 14.000000
21.612062 11.000000
21.631544 9.000000
21.651026 18.000000
21.670509 15.000000
21.689991 18.000000
21.709473 13.000000
21.728956 9.000000
21.748438 16.000000
21.767921 11.000000
21.787403 14.000000
21.806885 15.000000
21.826368 15.000000
21.845850 12.000000
21.865332 14.000000
21.884815 15.000000
21.904297 9.000000
21.923779 11.000000
21.943262 16.000000
21.962744 12.000000
21.982227 17.000000
22.001709 9.000000
22.021191 16.000000
22.040674 13.000000
22.060156 19.000000
22.079638 15.000000
22.099121 15.000000
22.118603 10.000000
22.138086 13.000000
22.157568 20.000000
22.177050 18.000000
22.196533 16.000000
22.216015 14.000000
22.235497 8.000000
22.254980 9.000000
22.274462 10.000000
22.293945 13.000000
22.313427 12.000000
22.332909 3.000000
22.352392 9.000000
22.371874 7.000000
22.391356 15.000000
22.410839 7.000000
22.430321 12.000000
22.449803 13.000000
22.469286 18.000000
22.488768 14.000000
22.508251 14.000000
22.527733 9.000000
22.547215 17.000000
22.566698 18.000000
22.586180 9.000000
22.605662 20.000000
22.625145 13.000000
22.644627 8.000000
22.664110 9.000000
22.683592 11.000000
22.703074 13.000000
22.722557 8.000000
22.742039 11.000000
22.761521 16.000000
22.781004 15.000000
22.800486 10.000000
22.819968 17.000000
22.839451 12.000000
22.858933 7.000000
22.878416 12.000000
22.897898 15.000000
22.917380 17.000000
22.936863 13.000000
22.956345 14.000000
22.975827 14.000000
22.995310 12.000000
23.014792 13.000000
23.034275 12.000000
23.053757 9.000000
23.073239 7.000000
23.092722 15.000000
23.112204 4.000000
23.131686 10.000000
23.151169 13.000000
23.170651 10.000000
23.190133 13.000000
23.209616 12.000000
23.229098 9.000000
23.248581 9.000000
23.268063 12.000000
23.287545 11.000000
23.307028 5.000000
23.326510 16.000000
23.345992 10.000000
23.365475 11.000000
23.384957 13.000000
23.404440 13.000000
23.423922 10.000000
23.443404 15.000000
23.462887 12.000000
23.482369 9.000000
23.501851 14.000000
23.521334 11.000000
23.540816 17.000000
23.560298 18.000000
23.579781 17.000000
23.599263 13.000000
23.618746 10.000000
23.638228 16.000000
23.657710 10.000000
23.677193 8.000000
23.696675 13.000000
23.716157 12.000000
23.735640 12.000000
23.755122 12.000000
23.774605 15.000000
23.794087 10.000000
23.813569 11.000000
23.833052 16.000000
23.852534 24.000000
23.872016 13.000000
23.891499 12.000000
23.910981 10.000000
23.930463 12.000000
23.949946 14.000000
23.969428 18.000000
23.988911 20.000000
24.008393 20.000000
24.027875 14.000000
24.047358 11.000000
24.066840 16.000000
24.086322 16.000000
24.105805 17.000000
24.125287 11.000000
24.144770 12.000000
24.164252 10.000000
24.183734 9.000000
24.203217 16.000000
24.222699 13.000000
24.242181 14.000000
24.261664 21.000000
24.281146 13.000000
24.300629 10.000000
24.320111 12.000000
24.339593 11.000000
24.359076 13.000000
24.378558 12.000000
24.398040 13.000000
24.417523 9.000000
24.437005 14.000000
24.456487 10.000000
24.475970 7.000000
24.495452 11.000000
24.514935 17.000000
24.534417 18.000000
24.553899 10.000000
24.573382 12.000000
24.592864 16.000000
24.612346 10.000000
24.631829 20.000000
24.651311 7.000000
24.670794 11.000000
24.690276 10.000000
24.709758 10.000000
24.729241 13.000000
24.748723 11.000000
24.768205 13.000000
24.787688 11.000000
24.807170 13.000000
24.826652 8.000000
24.846135 15.000000
24.865617 10.000000
24.885100 11.000000
24.904582 12.000000
24.924064 7.000000
24.943547 8.000000
24.963029 13.000000
24.982511 9.000000
25.001994 13.000000
25.021476 11.000000
25.040959 12.000000
25.060441 14.000000
25.079923 12.000000
25.099406 16.000000
25.118888 9.000000
25.138370 10.000000
25.157853 12.000000
25.177335 12.000000
25.196817 18.000000
25.216300 11.000000
25.235782 17.000000
25.255265 11.000000
25.274747 4.000000
25.294229 13.000000
25.313712 13.000000
25.333194 13.000000
25.352676 11.000000
25.372159 17.000000
25.391641 19.000000
25.411124 17.000000
25.430606 11.000000
25.450088 11.000000
25.469571 15.000000
25.489053 16.000000
25.508535 13.000000
25.528018 6.000000
25.547500 13.000000
25.566982 14.000000
25.586465 10.000000
25.605947 14.000000
25.625430 11.000000
25.644912 17.000000
25.664394 18.000000
25.683877 18.000000
25.703359 19.000000
25.722841 20.000000
25.742324 20.000000
25.761806 21.000000
25.781289 25.000000
25.800771 20.000000
25.820253 21.000000
25.839736 27.000000
25.859218 28.000000
25.878700 21.000000
25.898183 24.000000
25.917665 28.000000
25.937148 25.000000
25.956630 9.000000
25.976112 23.000000
25.995595 26.000000
26.015077 18.000000
26.034559 23.000000
26.054042 26.000000
26.073524 24.000000
26.093006 25.000000
26.112489 26.000000
26.131971 20.000000
26.151454 31.000000
26.170936 20.000000
26.190418 24.000000
26.209901 27.000000
26.229383 31.000000
26.248865 35.000000
26.268348 38.000000
26.287830 35.000000
26.307313 36.000000
26.326795 40.000000
26.346277 41.000000
26.365760 36.000000
26.385242 54.000000
26.404724 54.000000
26.424207 57.000000
26.443689 76.000000
26.463171 118.000000
26.482654 140.000000
26.502136 226.000000
26.521619 403.000000
26.541101 703.000000
26.560583 1319.000000
26.580066 2293.000000
26.599548 3320.000000
26.619030 4301.000000
26.638513 3995.000000
26.657995 2611.000000
26.677478 2182.000000
26.696960 2014.000000
26.716442 1197.000000
26.735925 414.000000
26.755407 185.000000
26.774889 128.000000
26.794372 94.000000
26.813854 82.000000
26.833336 62.000000
26.852819 51.000000
26.872301 50.000000
26.891784 33.000000
26.911266 50.000000
26.930748 28.000000
26.950231 31.000000
26.969713 32.000000
26.989195 39.000000
27.008678 30.000000
27.028160 34.000000
27.047643 27.000000
27.067125 27.000000
27.086607 29.000000
27.106090 20.000000
27.125572 23.000000
27.145054 23.000000
27.164537 18.000000
27.184019 16.000000
27.203501 23.000000
27.222984 20.000000
27.242466 28.000000
27.261949 17.000000
27.281431 23.000000
27.300913 23.000000
27.320396 21.000000
27.339878 25.000000
27.359360 22.000000
27.378843 12.000000
27.398325 22.000000
27.417808 19.000000
27.437290 18.000000
27.456772 21.000000
27.476255 24.000000
27.495737 21.000000
27.515219 21.000000
27.534702 16.000000
27.554184 13.000000
27.573667 21.000000
27.593149 22.000000
27.612631 18.000000
27.632114 17.000000
27.651596 19.000000
27.671078 20.000000
27.690561 19.000000
27.710043 15.000000
27.729525 20.000000
27.749008 16.000000
27.768490 14.000000
27.787973 17.000000
27.807455 24.000000
27.826937 17.000000
27.846420 13.000000
27.865902 17.000000
27.885384 26.000000
27.904867 13.000000
27.924349 19.000000
27.943832 16.000000
27.963314 18.000000
27.982796 13.000000
28.002279 18.000000
28.021761 18.000000
28.041243 15.000000
28.060726 19.000000
28.080208 17.000000
28.099690 22.000000
28.119173 25.000000
28.138655 21.000000
28.158138 10.000000
28.177620 23.000000
28.197102 20.000000
28.216585 10.000000
28.236067 16.000000
28.255549 14.000000
28.275032 17.000000
28.294514 16.000000
28.313997 10.000000
28.333479 10.000000
28.352961 16.000000
28.372444 14.000000
28.391926 18.000000
28.411408 8.000000
28.430891 14.000000
28.450373 17.000000
28.469855 23.000000
28.489338 16.000000
28.508820 20.000000
28.528303 18.000000
28.547785 8.000000
28.567267 10.000000
28.586750 16.000000
28.606232 13.000000
28.625714 16.000000
28.645197 14.000000
28.664679 16.000000
28.684162 19.000000
28.703644 18.000000
28.723126 10.000000
28.742609 15.000000
28.762091 16.000000
28.781573 9.000000
28.801056 9.000000
28.820538 15.000000
28.840020 24.000000
28.859503 9.000000
28.878985 19.000000
28.898468 15.000000
28.917950 19.000000
28.937432 15.000000
28.956915 13.000000
28.976397 13.000000
28.995879 15.000000
29.015362 21.000000
29.034844 9.000000
29.054327 18.000000
29.073809 18.000000
29.093291 12.000000
29.112774 15.000000
29.132256 7.000000
29.151738 17.000000
29.171221 12.000000
29.190703 13.000000
29.210185 7.000000
29.229668 13.000000
29.249150 12.000000
29.268633 12.000000
29.288115 13.000000
29.307597 15.000000
29.327080 11.000000
29.346562 14.000000
29.366044 13.000000
29.385527 21.000000
29.405009 23.000000
29.424492 13.000000
29.443974 19.000000
29.463456 20.000000
29.482939 13.000000
29.502421 11.000000
29.521903 17.000000
29.541386 17.000000
29.560868 11.000000
29.580351 17.000000
29.599833 13.000000
29.619315 10.000000
29.638798 17.000000
29.658280 22.000000
29.677762 8.000000
29.697245 12.000000
29.716727 18.000000
29.736209 22.000000
29.755692 14.000000
29.775174 9.000000
29.794657 16.000000
29.814139 13.000000
29.833621 13.000000
29.853104 21.000000
29.872586 13.000000
29.892068 19.000000
29.911551 10.000000
29.931033 11.000000
29.950516 11.000000
29.969998 14.000000
29.989480 17.000000
30.008963 22.000000
30.028445 7.000000
30.047927 15.000000
30.067410 8.000000
30.086892 8.000000
30.106374 14.000000
30.125857 13.000000
30.145339 13.000000
30.164822 9.000000
30.184304 18.000000
30.203786 6.000000
30.223269 13.000000
30.242751 6.000000
30.262233 13.000000
30.281716 11.000000
30.301198 12.000000
30.320681 10.000000
30.340163 7.000000
30.359645 10.000000
30.379128 9.000000
30.398610 13.000000
30.418092 11.000000
30.437575 20.000000
30.457057 15.000000
30.476539 13.000000
30.496022 16.000000
30.515504 14.000000
30.534987 23.000000
30.554469 6.000000
30.573951 9.000000
30.593434 9.000000
30.612916 15.000000
30.632398 9.000000
30.651881 14.000000
30.671363 13.000000
30.690846 13.000000
30.710328 18.000000
30.729810 10.000000
30.749293 8.000000
30.768775 6.000000
30.788257 9.000000
30.807740 12.000000
30.827222 14.000000
30.846704 7.000000
30.866187 9.000000
30.885669 9.000000
30.905152 11.000000
30.924634 10.000000
30.944116 12.000000
30.963599 13.000000
30.983081 11.000000
31.002563 12.000000
31.022046 12.000000
31.041528 13.000000
31.061011 9.000000
31.080493 12.000000
31.099975 12.000000
31.119458 15.000000
31.138940 13.000000
31.158422 11.000000
31.177905 14.000000
31.197387 12.000000
31.216870 12.000000
31.236352 12.000000
31.255834 9.000000
31.275317 12.000000
31.294799 12.000000
31.314281 9.000000
31.333764 20.000000
31.353246 12.000000
31.372728 8.000000
31.392211 11.000000
31.411693 5.000000
31.431176 13.000000
31.450658 12.000000
31.470140 11.000000
31.489623 13.000000
31.509105 20.000000
31.528587 9.000000
31.548070 10.000000
31.567552 16.000000
31.587035 8.000000
31.606517 9.000000
31.625999 11.000000
31.645482 12.000000
31.664964 11.000000
31.684446 11.000000
31.703929 11.000000
31.723411 14.000000
31.742893 14.000000
31.762376 9.000000
31.781858 13.000000
31.801341 17.000000
31.820823 8.000000
31.840305 4.000000
31.859788 9.000000
31.879270 8.000000
31.898752 13.000000
31.918235 4.000000
31.937717 10.000000
31.957200 12.000000
31.976682 6.000000
31.996164 9.000000
32.015647 8.000000
32.035129 11.000000
32.054611 15.000000
32.074094 10.000000
32.093576 15.000000
32.113058 8.000000
32.132541 11.000000
32.152023 10.000000
32.171506 7.000000
32.190988 7.000000
32.210470 9.000000
32.229953 11.000000
32.249435 10.000000
32.268917 9.000000
32.288400 11.000000
32.307882 11.000000
32.327365 8.000000
32.346847 4.000000
32.366329 9.000000
32.385812 9.000000
32.405294 7.000000
32.424776 14.000000
32.444259 9.000000
32.463741 12.000000
32.483223 10.000000
32.502706 5.000000
32.522188 10.000000
32.541671 13.000000
32.561153 7.000000
32.580635 9.000000
32.600118 11.000000
32.619600 9.000000
32.639082 14.000000
32.658565 10.000000
32.678047 9.000000
32.697530 10.000000
32.717012 9.000000
32.736494 8.000000
32.755977 10.000000
32.775459 8.000000
32.794941 11.000000
32.814424 11.000000
32.833906 10.000000
32.853389 8.000000
32.872871 8.000000
32.892353 10.000000
32.911836 14.000000
32.931318 16.000000
32.950800 12.000000
32.970283 10.000000
32.989765 9.000000
33.009247 11.000000
33.028730 16.000000
33.048212 5.000000
33.067695 11.000000
33.087177 12.000000
33.106659 13.000000
33.126142 15.000000
33.145624 10.000000
33.165106 12.000000
33.184589 13.000000
33.204071 9.000000
33.223554 10.000000
33.243036 11.000000
33.262518 18.000000
33.282001 14.000000
33.301483 11.000000
33.320965 5.000000
33.340448 2.000000
33.359930 12.000000
33.379412 7.000000
33.398895 13.000000
33.418377 13.000000
33.437860 9.000000
33.457342 10.000000
33.476824 8.000000
33.496307 10.000000
33.515789 8.000000
33.535271 6.000000
33.554754 14.000000
33.574236 9.000000
33.593719 10.000000
33.613201 9.000000
33.632683 12.000000
33.652166 13.000000
33.671648 8.000000
33.691130 8.000000
33.710613 8.000000
33.730095 5.000000
33.749577 7.000000
33.769060 11.000000
33.788542 15.000000
33.808025 3.000000
33.827507 13.000000
33.846989 12.000000
33.866472 9.000000
33.885954 14.000000
33.905436 6.000000
33.924919 15.000000
33.944401 14.000000
33.963884 14.000000
33.983366 6.000000
34.002848 12.000000
34.022331 9.000000
34.041813 8.000000
34.061295 7.000000
34.080778 15.000000
34.100260 14.000000
34.119742 4.000000
34.139225 9.000000
34.158707 5.000000
34.178190 15.000000
34.197672 13.000000
34.217154 5.000000
34.236637 12.000000
34.256119 13.000000
34.275601 14.000000
34.295084 6.000000
34.314566 10.000000
34.334049 9.000000
34.353531 9.000000
34.373013 8.000000
34.392496 13.000000
34.411978 6.000000
34.431460 7.000000
34.450943 13.000000
34.470425 12.000000
34.489908 9.000000
34.509390 7.000000
34.528872 15.000000
34.548355 6.000000
34.567837 13.000000
34.587319 9.000000
34.606802 8.000000
34.626284 11.000000
34.645766 8.000000
34.665249 2.000000
34.684731 9.000000
34.704214 14.000000
34.723696 6.000000
34.743178 6.000000
34.762661 7.000000
34.782143 7.000000
34.801625 15.000000
34.821108 12.000000
34.840590 6.000000
34.860073 6.000000
34.879555 10.000000
34.899037 10.000000
34.918520 10.000000
34.938002 5.000000
34.957484 4.000000
34.976967 7.000000
34.996449 4.000000
35.015931 13.000000
35.035414 12.000000
35.054896 14.000000
35.074379 13.000000
35.093861 9.000000
35.113343 7.000000
35.132826 6.000000
35.152308 7.000000
35.171790 11.000000
35.191273 8.000000
35.210755 11.000000
35.230238 12.000000
35.249720 7.000000
35.269202 9.000000
35.288685 16.000000
35.308167 15.000000
35.327649 11.000000
35.347132 13.000000
35.366614 6.000000
35.386096 12.000000
35.405579 13.000000
35.425061 12.000000
35.444544 7.000000
35.464026 12.000000
35.483508 8.000000
35.502991 9.000000
35.522473 10.000000
35.541955 11.000000
35.561438 11.000000
35.580920 14.000000
35.600403 9.000000
35.619885 6.000000
35.639367 6.000000
35.658850 18.000000
35.678332 10.000000
35.697814 4.000000
35.717297 14.000000
35.736779 9.000000
35.756261 9.000000
35.775744 8.000000
35.795226 7.000000
35.814709 13.000000
35.834191 11.000000
35.853673 9.000000
35.873156 11.000000
35.892638 4.000000
35.912120 7.000000
35.931603 10.000000
35.951085 11.000000
35.970568 13.000000
35.990050 15.000000
36.009532 9.000000
36.029015 11.000000
36.048497 16.000000
36.067979 13.000000
36.087462 10.000000
36.106944 12.000000
36.126426 10.000000
36.145909 11.000000
36.165391 11.000000
36.184874 8.000000
36.204356 8.000000
36.223838 19.000000
36.243321 12.000000
36.262803 10.000000
36.282285 10.000000
36.301768 12.000000
36.321250 16.000000
36.340733 16.000000
36.360215 19.000000
36.379697 25.000000
36.399180 19.000000
36.418662 39.000000
36.438144 53.000000
36.457627 73.000000
36.477109 158.000000
36.496592 219.000000
36.516074 322.000000
36.535556 351.000000
36.555039 219.000000
36.574521 148.000000
36.594003 156.000000
36.613486 166.000000
36.632968 167.000000
36.652450 113.000000
36.671933 50.000000
36.691415 29.000000
36.710898 32.000000
36.730380 19.000000
36.749862 9.000000
36.769345 17.000000
36.788827 11.000000
36.808309 13.000000
36.827792 13.000000
36.847274 13.000000
36.866757 10.000000
36.886239 11.000000
36.905721 10.000000
36.925204 14.000000
36.944686 14.000000
36.964168 13.000000
36.983651 12.000000
37.003133 9.000000
37.022615 9.000000
37.042098 7.000000
37.061580 8.000000
37.081063 17.000000
37.100545 14.000000
37.120027 5.000000
37.139510 16.000000
37.158992 7.000000
37.178474 9.000000
37.197957 9.000000
37.217439 7.000000
37.236922 8.000000
37.256404 11.000000
37.275886 11.000000
37.295369 11.000000
37.314851 8.000000
37.334333 10.000000
37.353816 5.000000
37.373298 6.000000
37.392780 8.000000
37.412263 11.000000
37.431745 8.000000
37.451228 7.000000
37.470710 12.000000
37.490192 10.000000
37.509675 6.000000
37.529157 8.000000
37.548639 10.000000
37.568122 3.000000
37.587604 9.000000
37.607087 12.000000
37.626569 5.000000
37.646051 7.000000
37.665534 11.000000
37.685016 12.000000
37.704498 10.000000
37.723981 11.000000
37.743463 14.000000
37.762945 7.000000
37.782428 10.000000
37.801910 11.000000
37.821393 15.000000
37.840875 10.000000
37.860357 9.000000
37.879840 9.000000
37.899322 11.000000
37.918804 8.000000
37.938287 12.000000
37.957769 6.000000
37.977252 3.000000
37.996734 7.000000
38.016216 8.000000
38.035699 15.000000
38.055181 8.000000
38.074663 13.000000
38.094146 17.000000
38.113628 6.000000
38.133111 7.000000
38.152593 11.000000
38.172075 11.000000
38.191558 6.000000
38.211040 6.000000
38.230522 11.000000
38.250005 5.000000
38.269487 14.000000
38.288969 12.000000
38.308452 6.000000
38.327934 8.000000
38.347417 8.000000
38.366899 8.000000
38.386381 12.000000
38.405864 6.000000
38.425346 10.000000
38.444828 8.000000
38.464311 9.000000
38.483793 3.000000
38.503276 12.000000
38.522758 7.000000
38.542240 9.000000
38.561723 9.000000
38.581205 4.000000
38.600687 5.000000
38.620170 11.000000
38.639652 9.000000
38.659134 9.000000
38.678617 12.000000
38.698099 10.000000
38.717582 12.000000
38.737064 6.000000
38.756546 13.000000
38.776029 13.000000
38.795511 13.000000
38.814993 10.000000
38.834476 8.000000
38.853958 8.000000
38.873441 6.000000
38.892923 6.000000
38.912405 9.000000
38.931888 11.000000
38.951370 13.000000
38.970852 11.000000
38.990335 10.000000
39.009817 16.000000
39.029299 15.000000
39.048782 15.000000
39.068264 10.000000
39.087747 7.000000
39.107229 5.000000
39.126711 6.000000
39.146194 16.000000
39.165676 9.000000
39.185158 7.000000
39.204641 17.000000
39.224123 12.000000
39.243606 15.000000
39.263088 19.000000
39.282570 16.000000
39.302053 13.000000
39.321535 15.000000
39.341017 41.000000
39.360500 47.000000
39.379982 57.000000
39.399464 113.000000
39.418947 178.000000
39.438429 250.000000
39.457912 238.000000
39.477394 158.000000
39.496876 91.000000
39.516359 116.000000
39.535841 129.000000
39.555323 146.000000
39.574806 85.000000
39.594288 43.000000
39.613771 31.000000
39.633253 25.000000
39.652735 16.000000
39.672218 15.000000
39.691700 11.000000
39.711182 11.000000
39.730665 9.000000
39.750147 8.000000
39.769630 17.000000
39.789112 13.000000
39.808594 10.000000
39.828077 10.000000
39.847559 11.000000
39.867041 11.000000
39.886524 7.000000
39.906006 10.000000
39.925488 6.000000
39.944971 7.000000
39.964453 18.000000
39.983936 10.000000
40.003418 11.000000
40.022900 14.000000
40.042383 17.000000
40.061865 15.000000
40.081347 15.000000
40.100830 13.000000
40.120312 22.000000
40.139795 24.000000
40.159277 18.000000
40.178759 26.000000
40.198242 53.000000
40.217724 54.000000
40.237206 99.000000
40.256689 108.000000
40.276171 129.000000
40.295653 91.000000
40.315136 68.000000
40.334618 64.000000
40.354101 64.000000
40.373583 79.000000
40.393065 70.000000
40.412548 47.000000
40.432030 29.000000
40.451512 22.000000
40.470995 22.000000
40.490477 8.000000
40.509960 17.000000
40.529442 14.000000
40.548924 18.000000
40.568407 12.000000
40.587889 13.000000
40.607371 11.000000
40.626854 8.000000
40.646336 8.000000
40.665818 9.000000
40.685301 11.000000
40.704783 6.000000
40.724266 13.000000
40.743748 10.000000
40.763230 8.000000
40.782713 11.000000
40.802195 9.000000
40.821677 12.000000
40.841160 7.000000
40.860642 8.000000
40.880125 9.000000
40.899607 12.000000
40.919089 8.000000
40.938572 7.000000
40.958054 7.000000
40.977536 12.000000
40.997019 8.000000
41.016501 12.000000
41.035983 6.000000
41.055466 9.000000
41.074948 14.000000
41.094431 8.000000
41.113913 14.000000
41.133395 12.000000
41.152878 9.000000
41.172360 12.000000
41.191842 7.000000
41.211325 16.000000
41.230807 10.000000
41.250290 8.000000
41.269772 3.000000
41.289254 10.000000
41.308737 8.000000
41.328219 6.000000
41.347701 6.000000
41.367184 4.000000
41.386666 10.000000
41.406149 9.000000
41.425631 6.000000
41.445113 11.000000
41.464596 13.000000
41.484078 8.000000
41.503560 6.000000
41.523043 7.000000
41.542525 10.000000
41.562007 14.000000
41.581490 9.000000
41.600972 17.000000
41.620455 7.000000
41.639937 7.000000
41.659419 10.000000
41.678902 10.000000
41.698384 9.000000
41.717866 10.000000
41.737349 7.000000
41.756831 6.000000
41.776314 9.000000
41.795796 8.000000
41.815278 11.000000
41.834761 10.000000
41.854243 14.000000
41.873725 6.000000
41.893208 11.000000
41.912690 14.000000
41.932172 7.000000
41.951655 5.000000
41.971137 6.000000
41.990620 13.000000
42.010102 10.000000
42.029584 14.000000
42.049067 9.000000
42.068549 10.000000
42.088031 11.000000
42.107514 12.000000
42.126996 13.000000
42.146479 8.000000
42.165961 17.000000
42.185443 14.000000
42.204926 13.000000
42.224408 18.000000
42.243890 11.000000
42.263373 20.000000
42.282855 17.000000
42.302337 18.000000
42.321820 34.000000
42.341302 61.000000
42.360785 78.000000
42.380267 120.000000
42.399749 187.000000
42.419232 270.000000
42.438714 267.000000
42.458196 186.000000
42.477679 124.000000
42.497161 114.000000
42.516644 150.000000
42.536126 149.000000
42.555608 131.000000
42.575091 78.000000
42.594573 46.000000
42.614055 26.000000
42.633538 16.000000
42.653020 24.000000
42.672502 16.000000
42.691985 18.000000
42.711467 20.000000
42.730950 14.000000
42.750432 13.000000
42.769914 13.000000
42.789397 13.000000
42.808879 11.000000
42.828361 16.000000
42.847844 7.000000
42.867326 9.000000
42.886809 8.000000
42.906291 7.000000
42.925773 9.000000
42.945256 10.000000
42.964738 7.000000
42.984220 10.000000
43.003703 7.000000
43.023185 6.000000
43.042667 11.000000
43.062150 10.000000
43.081632 5.000000
43.101115 18.000000
43.120597 13.000000
43.140079 3.000000
43.159562 6.000000
43.179044 8.000000
43.198526 16.000000
43.218009 9.000000
43.237491 14.000000
43.256974 7.000000
43.276456 13.000000
43.295938 8.000000
43.315421 6.000000
43.334903 11.000000
43.354385 11.000000
43.373868 8.000000
43.393350 8.000000
43.412833 5.000000
43.432315 6.000000
43.451797 14.000000
43.471280 7.000000
43.490762 4.000000
43.510244 7.000000
43.529727 14.000000
43.549209 9.000000
43.568691 7.000000
43.588174 7.000000
43.607656 9.000000
43.627139 7.000000
43.646621 8.000000
43.666103 8.000000
43.685586 9.000000
43.705068 5.000000
43.724550 10.000000
43.744033 10.000000
43.763515 8.000000
43.782998 9.000000
43.802480 10.000000
43.821962 6.000000
43.841445 8.000000
43.860927 6.000000
43.880409 11.000000
43.899892 5.000000
43.919374 6.000000
43.938856 10.000000
43.958339 7.000000
43.977821 10.000000
43.997304 7.000000
44.016786 14.000000
44.036268 6.000000
44.055751 8.000000
44.075233 10.000000
44.094715 5.000000
44.114198 5.000000
44.133680 9.000000
44.153163 10.000000
44.172645 8.000000
44.192127 4.000000
44.211610 9.000000
44.231092 4.000000
44.250574 8.000000
44.270057 8.000000
44.289539 7.000000
44.309021 10.000000
44.328504 6.000000
44.347986 8.000000
44.367469 8.000000
44.386951 7.000000
44.406433 12.000000
44.425916 5.000000
44.445398 6.000000
44.464880 10.000000
44.484363 9.000000
44.503845 9.000000
44.523328 8.000000
44.542810 5.000000
44.562292 6.000000
44.581775 7.000000
44.601257 14.000000
44.620739 9.000000
44.640222 6.000000
44.659704 8.000000
44.679186 11.000000
44.698669 9.000000
44.718151 10.000000
44.737634 11.000000
44.757116 7.000000
44.776598 1.000000
44.796081 8.000000
44.815563 6.000000
44.835045 7.000000
44.854528 6.000000
44.874010 6.000000
44.893493 12.000000
44.912975 4.000000
44.932457 11.000000
44.951940 8.000000
44.971422 14.000000
44.990904 5.000000
45.010387 11.000000
45.029869 10.000000
45.049352 4.000000
45.068834 5.000000
45.088316 14.000000
45.107799 7.000000
45.127281 7.000000
45.146763 8.000000
45.166246 9.000000
45.185728 7.000000
45.205210 5.000000
45.224693 11.000000
45.244175 12.000000
45.263658 7.000000
45.283140 10.000000
45.302622 9.000000
45.322105 11.000000
45.341587 10.000000
45.361069 10.000000
45.380552 6.000000
45.400034 15.000000
45.419517 9.000000
45.438999 9.000000
45.458481 11.000000
45.477964 7.000000
45.497446 10.000000
45.516928 13.000000
45.536411 10.000000
45.555893 13.000000
45.575375 9.000000
45.594858 16.000000
45.614340 7.000000
45.633823 19.000000
45.653305 18.000000
45.672787 27.000000
45.692270 29.000000
45.711752 55.000000
45.731234 70.000000
45.750717 82.000000
45.770199 126.000000
45.789682 131.000000
45.809164 90.000000
45.828646 48.000000
45.848129 57.000000
45.867611 62.000000
45.887093 79.000000
45.906576 51.000000
45.926058 44.000000
45.945540 32.000000
45.965023 18.000000
45.984505 14.000000
46.003988 10.000000
46.023470 12.000000
46.042952 15.000000
46.062435 5.000000
46.081917 11.000000
46.101399 2.000000
46.120882 10.000000
46.140364 10.000000
46.159847 7.000000
46.179329 12.000000
46.198811 7.000000
46.218294 9.000000
46.237776 11.000000
46.257258 8.000000
46.276741 9.000000
46.296223 3.000000
46.315705 10.000000
46.335188 14.000000
46.354670 10.000000
46.374153 9.000000
46.393635 10.000000
46.413117 5.000000
46.432600 5.000000
46.452082 9.000000
46.471564 8.000000
46.491047 7.000000
46.510529 7.000000
46.530012 4.000000
46.549494 10.000000
46.568976 10.000000
46.588459 13.000000
46.607941 6.000000
46.627423 7.000000
46.646906 5.000000
46.666388 11.000000
46.685871 9.000000
46.705353 9.000000
46.724835 12.000000
46.744318 11.000000
46.763800 8.000000
46.783282 8.000000
46.802765 9.000000
46.822247 11.000000
46.841729 8.000000
46.861212 11.000000
46.880694 5.000000
46.900177 7.000000
46.919659 8.000000
46.939141 7.000000
46.958624 8.000000
46.978106 13.000000
46.997588 8.000000
47.017071 9.000000
47.036553 5.000000
47.056036 7.000000
47.075518 10.000000
47.095000 7.000000
47.114483 12.000000
47.133965 5.000000
47.153447 4.000000
47.172930 7.000000
47.192412 7.000000
47.211894 6.000000
47.231377 10.000000
47.250859 11.000000
47.270342 6.000000
47.289824 9.000000
47.309306 8.000000
47.328789 1.000000
47.348271 13.000000
47.367753 5.000000
47.387236 5.000000
47.406718 7.000000
47.426201 8.000000
47.445683 8.000000
47.465165 14.000000
47.484648 12.000000
47.504130 18.000000
47.523612 14.000000
47.543095 12.000000
47.562577 15.000000
47.582059 7.000000
47.601542 15.000000
47.621024 13.000000
47.640507 8.000000
47.659989 13.000000
47.679471 10.000000
47.698954 13.000000
47.718436 6.000000
47.737918 7.000000
47.757401 4.000000
47.776883 8.000000
47.796366 10.000000
47.815848 5.000000
47.835330 9.000000
47.854813 12.000000
47.874295 6.000000
47.893777 12.000000
47.913260 3.000000
47.932742 2.000000
47.952224 6.000000
47.971707 8.000000
47.991189 8.000000
48.010672 10.000000
48.030154 6.000000
48.049636 5.000000
48.069119 9.000000
48.088601 8.000000
48.108083 15.000000
48.127566 7.000000
48.147048 12.000000
48.166531 8.000000
48.186013 10.000000
48.205495 5.000000
48.224978 7.000000
48.244460 9.000000
48.263942 8.000000
48.283425 9.000000
48.302907 6.000000
48.322389 9.000000
48.341872 9.000000
48.361354 9.000000
48.380837 6.000000
48.400319 11.000000
48.419801 6.000000
48.439284 11.000000
48.458766 7.000000
48.478248 7.000000
48.497731 11.000000
48.517213 14.000000
48.536696 8.000000
48.556178 13.000000
48.575660 3.000000
48.595143 7.000000
48.614625 10.000000
48.634107 7.000000
48.653590 7.000000
48.673072 11.000000
48.692555 9.000000
48.712037 12.000000
48.731519 6.000000
48.751002 10.000000
48.770484 4.000000
48.789966 3.000000
48.809449 5.000000
48.828931 6.000000
48.848413 5.000000
48.867896 14.000000
48.887378 8.000000
48.906861 9.000000
48.926343 14.000000
48.945825 7.000000
48.965308 5.000000
48.984790 11.000000
49.004272 7.000000
49.023755 8.000000
49.043237 11.000000
49.062720 8.000000
49.082202 2.000000
49.101684 8.000000
49.121167 11.000000
49.140649 7.000000
49.160131 12.000000
49.179614 7.000000
49.199096 11.000000
49.218578 7.000000
49.238061 13.000000
49.257543 8.000000
49.277026 6.000000
49.296508 11.000000
49.315990 11.000000
49.335473 17.000000
49.354955 6.000000
49.374437 6.000000
49.393920 6.000000
49.413402 14.000000
49.432885 12.000000
49.452367 6.000000
49.471849 8.000000
49.491332 9.000000
49.510814 4.000000
49.530296 13.000000
49.549779 13.000000
49.569261 9.000000
49.588743 8.000000
49.608226 10.000000
49.627708 9.000000
49.647191 12.000000
49.666673 6.000000
49.686155 10.000000
49.705638 8.000000
49.725120 7.000000
49.744602 10.000000
49.764085 12.000000
49.783567 10.000000
49.803050 12.000000
49.822532 8.000000
49.842014 18.000000
49.861497 12.000000
49.880979 10.000000
49.900461 14.000000
49.919944 20.000000
49.939426 17.000000
49.958908 20.000000
49.978391 27.000000
49.997873 33.000000
50.017356 41.000000
50.036838 97.000000
50.056320 157.000000
50.075803 198.000000
50.095285 299.000000
50.114767 339.000000
50.134250 304.000000
50.153732 208.000000
50.173215 147.000000
50.192697 122.000000
50.212179 164.000000
50.231662 157.000000
50.251144 188.000000
50.270626 133.000000
50.290109 91.000000
50.309591 58.000000
50.329074 34.000000
50.348556 20.000000
50.368038 23.000000
50.387521 14.000000
50.407003 20.000000
50.426485 17.000000
50.445968 6.000000
50.465450 9.000000
50.484932 16.000000
50.504415 10.000000
50.523897 8.000000
50.543380 15.000000
50.562862 28.000000
50.582344 31.000000
50.601827 25.000000
50.621309 18.000000
50.640791 13.000000
50.660274 9.000000
50.679756 12.000000
50.699239 15.000000
50.718721 16.000000
50.738203 14.000000
50.757686 13.000000
50.777168 10.000000
50.796650 5.000000
50.816133 12.000000
50.835615 7.000000
50.855097 17.000000
50.874580 16.000000
50.894062 11.000000
50.913545 7.000000
50.933027 8.000000
50.952509 9.000000
50.971992 10.000000
50.991474 4.000000
51.010956 6.000000
51.030439 6.000000
51.049921 2.000000
51.069404 2.000000
51.088886 12.000000
51.108368 6.000000
51.127851 6.000000
51.147333 10.000000
51.166815 7.000000
51.186298 11.000000
51.205780 9.000000
51.225262 12.000000
51.244745 4.000000
51.264227 8.000000
51.283710 5.000000
51.303192 8.000000
51.322674 10.000000
51.342157 11.000000
51.361639 4.000000
51.381121 10.000000
51.400604 6.000000
51.420086 12.000000
51.439569 6.000000
51.459051 5.000000
51.478533 7.000000
51.498016 8.000000
51.517498 9.000000
51.536980 12.000000
51.556463 5.000000
51.575945 11.000000
51.595427 9.000000
51.614910 4.000000
51.634392 12.000000
51.653875 5.000000
51.673357 7.000000
51.692839 8.000000
51.712322 8.000000
51.731804 6.000000
51.751286 5.000000
51.770769 11.000000
51.790251 11.000000
51.809734 14.000000
51.829216 10.000000
51.848698 5.000000
51.868181 8.000000
51.887663 7.000000
51.907145 6.000000
51.926628 11.000000
51.946110 9.000000
51.965593 6.000000
51.985075 5.000000
52.004557 10.000000
52.024040 6.000000
52.043522 9.000000
52.063004 4.000000
52.082487 12.000000
52.101969 7.000000
52.121451 8.000000
52.140934 8.000000
52.160416 7.000000
52.179899 6.000000
52.199381 6.000000
52.218863 7.000000
52.238346 3.000000
52.257828 5.000000
52.277310 11.000000
52.296793 8.000000
52.316275 9.000000
52.335758 6.000000
52.355240 12.000000
52.374722 8.000000
52.394205 8.000000
52.413687 6.000000
52.433169 4.000000
52.452652 4.000000
52.472134 9.000000
52.491616 12.000000
52.511099 5.000000
52.530581 4.000000
52.550064 9.000000
52.569546 9.000000
52.589028 5.000000
52.608511 6.000000
52.627993 3.000000
52.647475 10.000000
52.666958 8.000000
52.686440 9.000000
52.705923 6.000000
52.725405 8.000000
52.744887 10.000000
52.764370 9.000000
52.783852 12.000000
52.803334 6.000000
52.822817 6.000000
52.842299 6.000000
52.861781 12.000000
52.881264 8.000000
52.900746 6.000000
52.920229 11.000000
52.939711 7.000000
52.959193 13.000000
52.978676 5.000000
52.998158 5.000000
53.017640 4.000000
53.037123 6.000000
53.056605 5.000000
53.076088 5.000000
53.095570 6.000000
53.115052 3.000000
53.134535 12.000000
53.154017 5.000000
53.173499 4.000000
53.192982 10.000000
53.212464 6.000000
53.231946 3.000000
53.251429 8.000000
53.270911 8.000000
53.290394 7.000000
53.309876 6.000000
53.329358 8.000000
53.348841 1.000000
53.368323 8.000000
53.387805 11.000000
53.407288 6.000000
53.426770 7.000000
53.446253 8.000000
53.465735 8.000000
53.485217 13.000000
53.504700 5.000000
53.524182 8.000000
53.543664 2.000000
53.563147 7.000000
53.582629 9.000000
53.602112 8.000000
53.621594 6.000000
53.641076 10.000000
53.660559 6.000000
53.680041 6.000000
53.699523 7.000000
53.719006 10.000000
53.738488 9.000000
53.757970 6.000000
53.777453 6.000000
53.796935 7.000000
53.816418 13.000000
53.835900 13.000000
53.855382 5.000000
53.874865 5.000000
53.894347 6.000000
53.913829 5.000000
53.933312 4.000000
53.952794 8.000000
53.972277 8.000000
53.991759 10.000000
54.011241 9.000000
54.030724 8.000000
54.050206 8.000000
54.069688 5.000000
54.089171 4.000000
54.108653 6.000000
54.128135 5.000000
54.147618 6.000000
54.167100 9.000000
54.186583 10.000000
54.206065 12.000000
54.225547 9.000000
54.245030 6.000000
54.264512 8.000000
54.283994 11.000000
54.303477 3.000000
54.322959 6.000000
54.342442 8.000000
54.361924 6.000000
54.381406 9.000000
54.400889 5.000000
54.420371 10.000000
54.439853 10.000000
54.459336 10.000000
54.478818 6.000000
54.498300 11.000000
54.517783 15.000000
54.537265 9.000000
54.556748 8.000000
54.576230 8.000000
54.595712 9.000000
54.615195 6.000000
54.634677 10.000000
54.654159 14.000000
54.673642 5.000000
54.693124 17.000000
54.712607 14.000000
54.732089 16.000000
54.751571 24.000000
54.771054 31.000000
54.790536 51.000000
54.810018 78.000000
54.829501 98.000000
54.848983 127.000000
54.868465 103.000000
54.887948 87.000000
54.907430 56.000000
54.926913 37.000000
54.946395 44.000000
54.965877 45.000000
54.985360 62.000000
55.004842 64.000000
55.024324 65.000000
55.043807 47.000000
55.063289 28.000000
55.082772 16.000000
55.102254 11.000000
55.121736 18.000000
55.141219 12.000000
55.160701 9.000000
55.180183 19.000000
55.199666 14.000000
55.219148 9.000000
55.238630 30.000000
55.258113 35.000000
55.277595 30.000000
55.297078 45.000000
55.316560 63.000000
55.336042 38.000000
55.355525 35.000000
55.375007 32.000000
55.394489 21.000000
55.413972 20.000000
55.433454 21.000000
55.452937 21.000000
55.472419 26.000000
55.491901 23.000000
55.511384 14.000000
55.530866 12.000000
55.550348 9.000000
55.569831 7.000000
55.589313 5.000000
55.608796 9.000000
55.628278 11.000000
55.647760 12.000000
55.667243 5.000000
55.686725 7.000000
55.706207 11.000000
55.725690 8.000000
55.745172 7.000000
55.764654 4.000000
55.784137 14.000000
55.803619 10.000000
55.823102 5.000000
55.842584 4.000000
55.862066 4.000000
55.881549 6.000000
55.901031 7.000000
55.920513 8.000000
55.939996 5.000000
55.959478 12.000000
55.978961 8.000000
55.998443 9.000000
56.017925 9.000000
56.037408 12.000000
56.056890 6.000000
56.076372 10.000000
56.095855 7.000000
56.115337 5.000000
56.134819 6.000000
56.154302 12.000000
56.173784 5.000000
56.193267 7.000000
56.212749 8.000000
56.232231 7.000000
56.251714 5.000000
56.271196 7.000000
56.290678 8.000000
56.310161 6.000000
56.329643 2.000000
56.349126 11.000000
56.368608 7.000000
56.388090 16.000000
56.407573 5.000000
56.427055 7.000000
56.446537 2.000000
56.466020 2.000000
56.485502 6.000000
56.504984 4.000000
56.524467 7.000000
56.543949 3.000000
56.563432 2.000000
56.582914 10.000000
56.602396 8.000000
56.621879 10.000000
56.641361 4.000000
56.660843 4.000000
56.680326 8.000000
56.699808 10.000000
56.719291 8.000000
56.738773 8.000000
56.758255 9.000000
56.777738 8.000000
56.797220 10.000000
56.816702 9.000000
56.836185 9.000000
56.855667 3.000000
56.875149 3.000000
56.894632 6.000000
56.914114 5.000000
56.933597 4.000000
56.953079 10.000000
56.972561 6.000000
56.992044 5.000000
57.011526 10.000000
57.031008 5.000000
57.050491 10.000000
57.069973 3.000000
57.089456 9.000000
57.108938 4.000000
57.128420 9.000000
57.147903 10.000000
57.167385 17.000000
57.186867 10.000000
57.206350 13.000000
57.225832 15.000000
57.245315 12.000000
57.264797 12.000000
57.284279 9.000000
57.303762 14.000000
57.323244 10.000000
57.342726 6.000000
57.362209 7.000000
57.381691 8.000000
57.401173 6.000000
57.420656 10.000000
57.440138 3.000000
57.459621 7.000000
57.479103 6.000000
57.498585 12.000000
57.518068 9.000000
57.537550 3.000000
57.557032 6.000000
57.576515 9.000000
57.595997 10.000000
57.615480 10.000000
57.634962 8.000000
57.654444 5.000000
57.673927 7.000000
57.693409 7.000000
57.712891 7.000000
57.732374 2.000000
57.751856 6.000000
57.771338 7.000000
57.790821 9.000000
57.810303 7.000000
57.829786 10.000000
57.849268 9.000000
57.868750 11.000000
57.888233 4.000000
57.907715 17.000000
57.927197 8.000000
57.946680 6.000000
57.966162 10.000000
57.985645 7.000000
58.005127 11.000000
58.024609 7.000000
58.044092 13.000000
58.063574 9.000000
58.083056 5.000000
58.102539 8.000000
58.122021 8.000000
58.141503 4.000000
58.160986 6.000000
58.180468 9.000000
58.199951 9.000000
58.219433 4.000000
58.238915 8.000000
58.258398 8.000000
58.277880 6.000000
58.297362 2.000000
58.316845 2.000000
58.336327 9.000000
58.355810 5.000000
58.375292 8.000000
58.394774 6.000000
58.414257 8.000000
58.433739 10.000000
58.453221 7.000000
58.472704 10.000000
58.492186 10.000000
58.511668 8.000000
58.531151 4.000000
58.550633 9.000000
58.570116 5.000000
58.589598 9.000000
58.609080 7.000000
58.628563 9.000000
58.648045 5.000000
58.667527 6.000000
58.687010 5.000000
58.706492 4.000000
58.725975 7.000000
58.745457 5.000000
58.764939 6.000000
58.784422 6.000000
58.803904 10.000000
58.823386 5.000000
58.842869 5.000000
58.862351 5.000000
58.881834 10.000000
58.901316 4.000000
58.920798 8.000000
58.940281 7.000000
58.959763 6.000000
58.979245 4.000000
58.998728 8.000000
59.018210 4.000000
59.037692 2.000000
59.057175 10.000000
59.076657 5.000000
59.096140 9.000000
59.115622 7.000000
59.135104 3.000000
59.154587 7.000000
59.174069 6.000000
59.193551 3.000000
59.213034 5.000000
59.232516 6.000000
59.251999 2.000000
59.271481 13.000000
59.290963 3.000000
59.310446 5.000000
59.329928 9.000000
59.349410 7.000000
59.368893 10.000000
59.388375 4.000000
59.407857 10.000000
59.427340 8.000000
59.446822 8.000000
59.466305 17.000000
59.485787 8.000000
59.505269 7.000000
59.524752 8.000000
59.544234 7.000000
59.563716 11.000000
59.583199 11.000000
59.602681 12.000000
59.622164 11.000000
59.641646 13.000000
59.661128 15.000000
59.680611 12.000000
59.700093 5.000000
59.719575 19.000000
59.739058 19.000000
59.758540 20.000000
59.778022 30.000000
59.797505 25.000000
59.816987 36.000000
59.836470 58.000000
59.855952 88.000000
59.875434 171.000000
59.894917 225.000000
59.914399 340.000000
59.933881 302.000000
59.953364 301.000000
59.972846 194.000000
59.992329 155.000000
60.011811 102.000000
60.031293 118.000000
60.050776 127.000000
60.070258 149.000000
60.089740 155.000000
60.109223 169.000000
60.128705 141.000000
60.148187 82.000000
60.167670 44.000000
60.187152 43.000000
60.206635 28.000000
60.226117 13.000000
60.245599 20.000000
60.265082 7.000000
60.284564 13.000000
60.304046 16.000000
60.323529 8.000000
60.343011 10.000000
60.362494 5.000000
60.381976 13.000000
60.401458 10.000000
60.420941 9.000000
60.440423 9.000000
60.459905 10.000000
60.479388 12.000000
60.498870 6.000000
60.518352 4.000000
60.537835 5.000000
60.557317 10.000000
60.576800 6.000000
60.596282 7.000000
60.615764 4.000000
60.635247 10.000000
60.654729 5.000000
60.674211 5.000000
60.693694 5.000000
60.713176 8.000000
60.732659 6.000000
60.752141 10.000000
60.771623 5.000000
60.791106 12.000000
60.810588 7.000000
60.830070 5.000000
60.849553 7.000000
60.869035 8.000000
60.888518 10.000000
60.908000 14.000000
60.927482 13.000000
60.946965 7.000000
60.966447 9.000000
60.985929 9.000000
61.005412 3.000000
61.024894 12.000000
61.044376 7.000000
61.063859 8.000000
61.083341 5.000000
61.102824 10.000000
61.122306 8.000000
61.141788 9.000000
61.161271 7.000000
61.180753 6.000000
61.200235 7.000000
61.219718 14.000000
61.239200 7.000000
61.258683 4.000000
61.278165 3.000000
61.297647 6.000000
61.317130 10.000000
61.336612 9.000000
61.356094 7.000000
61.375577 4.000000
61.395059 7.000000
61.414541 4.000000
61.434024 9.000000
61.453506 4.000000
61.472989 8.000000
61.492471 4.000000
61.511953 5.000000
61.531436 11.000000
61.550918 7.000000
61.570400 8.000000
61.589883 6.000000
61.609365 10.000000
61.628848 6.000000
61.648330 5.000000
61.667812 7.000000
61.687295 6.000000
61.706777 3.000000
61.726259 4.000000
61.745742 8.000000
61.765224 4.000000
61.784706 11.000000
61.804189 6.000000
61.823671 9.000000
61.843154 7.000000
61.862636 11.000000
61.882118 9.000000
61.901601 7.000000
61.921083 7.000000
61.940565 3.000000
61.960048 9.000000
61.979530 5.000000
61.999013 10.000000
62.018495 6.000000
62.037977 7.000000
62.057460 3.000000
62.076942 10.000000
62.096424 9.000000
62.115907 5.000000
62.135389 5.000000
62.154871 3.000000
62.174354 8.000000
62.193836 7.000000
62.213319 6.000000
62.232801 5.000000
62.252283 8.000000
62.271766 4.000000
62.291248 13.000000
62.310730 6.000000
62.330213 4.000000
62.349695 7.000000
62.369178 8.000000
62.388660 5.000000
62.408142 8.000000
62.427625 8.000000
62.447107 4.000000
62.466589 8.000000
62.486072 7.000000
62.505554 5.000000
62.525037 7.000000
62.544519 2.000000
62.564001 8.000000
62.583484 5.000000
62.602966 6.000000
62.622448 5.000000
62.641931 9.000000
62.661413 8.000000
62.680895 11.000000
62.700378 12.000000
62.719860 10.000000
62.739343 6.000000
62.758825 3.000000
62.778307 7.000000
62.797790 3.000000
62.817272 7.000000
62.836754 9.000000
62.856237 6.000000
62.875719 8.000000
62.895202 1.000000
62.914684 9.000000
62.934166 7.000000
62.953649 8.000000
62.973131 7.000000
62.992613 5.000000
63.012096 4.000000
63.031578 6.000000
63.051060 5.000000
63.070543 9.000000
63.090025 5.000000
63.109508 5.000000
63.128990 6.000000
63.148472 5.000000
63.167955 9.000000
63.187437 12.000000
63.206919 11.000000
63.226402 6.000000
63.245884 8.000000
63.265367 6.000000
63.284849 6.000000
63.304331 2.000000
63.323814 6.000000
63.343296 5.000000
63.362778 4.000000
63.382261 10.000000
63.401743 5.000000
63.421225 9.000000
63.440708 7.000000
63.460190 8.000000
63.479673 4.000000
63.499155 6.000000
63.518637 2.000000
63.538120 6.000000
63.557602 5.000000
63.577084 1.000000
63.596567 7.000000
63.616049 11.000000
63.635532 12.000000
63.655014 7.000000
63.674496 6.000000
63.693979 7.000000
63.713461 10.000000
63.732943 10.000000
63.752426 8.000000
63.771908 10.000000
63.791390 8.000000
63.810873 5.000000
63.830355 8.000000
63.849838 7.000000
63.869320 10.000000
63.888802 9.000000
63.908285 11.000000
63.927767 12.000000
63.947249 26.000000
63.966732 28.000000
63.986214 49.000000
64.005697 43.000000
64.025179 43.000000
64.044661 28.000000
64.064144 26.000000
64.083626 20.000000
64.103108 8.000000
64.122591 18.000000
64.142073 17.000000
64.161556 28.000000
64.181038 39.000000
64.200520 25.000000
64.220003 21.000000
64.239485 19.000000
64.258967 10.000000
64.278450 9.000000
64.297932 10.000000
64.317414 14.000000
64.336897 8.000000
64.356379 16.000000
64.375862 7.000000
64.395344 0.000001
64.414826 6.000000
64.434309 6.000000
64.453791 6.000000
64.473273 5.000000
64.492756 4.000000
64.512238 11.000000
64.531721 10.000000
64.551203 6.000000
64.570685 7.000000
64.590168 8.000000
64.609650 1.000000
64.629132 7.000000
64.648615 10.000000
64.668097 6.000000
64.687579 13.000000
64.707062 4.000000
64.726544 9.000000
64.746027 8.000000
64.765509 7.000000
64.784991 8.000000
64.804474 7.000000
64.823956 9.000000
64.843438 8.000000
64.862921 5.000000
64.882403 9.000000
64.901886 5.000000
64.921368 8.000000
64.940850 8.000000
64.960333 3.000000
64.979815 8.000000
64.999297 9.000000
65.018780 6.000000
65.038262 4.000000
65.057744 5.000000
65.077227 8.000000
65.096709 2.000000
65.116192 7.000000
65.135674 8.000000
65.155156 7.000000
65.174639 11.000000
65.194121 7.000000
65.213603 7.000000
65.233086 5.000000
65.252568 3.000000
65.272051 7.000000
65.291533 6.000000
65.311015 4.000000
65.330498 6.000000
65.349980 9.000000
65.369462 2.000000
65.388945 6.000000
65.408427 7.000000
65.427909 6.000000
65.447392 8.000000
65.466874 6.000000
65.486357 11.000000
65.505839 9.000000
65.525321 8.000000
65.544804 13.000000
65.564286 10.000000
65.583768 16.000000
65.603251 11.000000
65.622733 12.000000
65.642216 16.000000
65.661698 16.000000
65.681180 15.000000
65.700663 26.000000
65.720145 26.000000
65.739627 25.000000
65.759110 29.000000
65.778592 25.000000
65.798075 29.000000
65.817557 25.000000
65.837039 21.000000
65.856522 15.000000
65.876004 20.000000
65.895486 7.000000
65.914969 21.000000
65.934451 23.000000
65.953933 23.000000
65.973416 6.000000
65.992898 13.000000
66.012381 6.000000
66.031863 13.000000
66.051345 8.000000
66.070828 7.000000
66.090310 10.000000
66.109792 7.000000
66.129275 6.000000
66.148757 9.000000
66.168240 11.000000
66.187722 10.000000
66.207204 6.000000
66.226687 10.000000
66.246169 3.000000
66.265651 5.000000
66.285134 5.000000
66.304616 8.000000
66.324098 9.000000
66.343581 8.000000
66.363063 3.000000
66.382546 5.000000
66.402028 10.000000
66.421510 6.000000
66.440993 6.000000
66.460475 6.000000
66.479957 7.000000
66.499440 6.000000
66.518922 5.000000
66.538405 8.000000
66.557887 10.000000
66.577369 7.000000
66.596852 8.000000
66.616334 6.000000
66.635816 10.000000
66.655299 5.000000
66.674781 4.000000
66.694263 8.000000
66.713746 10.000000
66.733228 3.000000
66.752711 10.000000
66.772193 9.000000
66.791675 12.000000
66.811158 6.000000
66.830640 5.000000
66.850122 6.000000
66.869605 9.000000
66.889087 12.000000
66.908570 6.000000
66.928052 10.000000
66.947534 9.000000
66.967017 9.000000
66.986499 8.000000
67.005981 7.000000
67.025464 6.000000
67.044946 12.000000
67.064428 8.000000
67.083911 9.000000
67.103393 8.000000
67.122876 7.000000
67.142358 8.000000
67.161840 6.000000
67.181323 6.000000
67.200805 5.000000
67.220287 11.000000
67.239770 11.000000
67.259252 9.000000
67.278735 9.000000
67.298217 8.000000
67.317699 5.000000
67.337182 13.000000
67.356664 7.000000
67.376146 5.000000
67.395629 10.000000
67.415111 12.000000
67.434593 10.000000
67.454076 12.000000
67.473558 14.000000
67.493041 18.000000
67.512523 17.000000
67.532005 22.000000
67.551488 23.000000
67.570970 14.000000
67.590452 25.000000
67.609935 36.000000
67.629417 54.000000
67.648900 62.000000
67.668382 95.000000
67.687864 117.000000
67.707347 153.000000
67.726829 169.000000
67.746311 141.000000
67.765794 96.000000
67.785276 77.000000
67.804759 51.000000
67.824241 53.000000
67.843723 40.000000
67.863206 40.000000
67.882688 77.000000
67.902170 96.000000
67.921653 86.000000
67.941135 104.000000
67.960617 46.000000
67.980100 44.000000
67.999582 39.000000
68.019065 43.000000
68.038547 62.000000
68.058029 87.000000
68.077512 100.000000
68.096994 116.000000
68.116476 122.000000
68.135959 135.000000
68.155441 116.000000
68.174924 68.000000
68.194406 64.000000
68.213888 86.000000
68.233371 116.000000
68.252853 143.000000
68.272335 175.000000
68.291818 187.000000
68.311300 163.000000
68.330782 136.000000
68.350265 110.000000
68.369747 74.000000
68.389230 62.000000
68.408712 56.000000
68.428194 57.000000
68.447677 58.000000
68.467159 64.000000
68.486641 71.000000
68.506124 81.000000
68.525606 48.000000
68.545089 23.000000
68.564571 32.000000
68.584053 20.000000
68.603536 23.000000
68.623018 17.000000
68.642500 14.000000
68.661983 11.000000
68.681465 11.000000
68.700947 9.000000
68.720430 8.000000
68.739912 9.000000
68.759395 14.000000
68.778877 5.000000
68.798359 9.000000
68.817842 5.000000
68.837324 8.000000
68.856806 6.000000
68.876289 2.000000
68.895771 11.000000
68.915254 11.000000
68.934736 11.000000
68.954218 14.000000
68.973701 12.000000
68.993183 6.000000
69.012665 9.000000
69.032148 5.000000
69.051630 5.000000
69.071112 7.000000
69.090595 5.000000
69.110077 9.000000
69.129560 4.000000
69.149042 13.000000
69.168524 8.000000
69.188007 10.000000
69.207489 9.000000
69.226971 7.000000
69.246454 9.000000
69.265936 9.000000
69.285419 8.000000
69.304901 5.000000
69.324383 7.000000
69.343866 6.000000
69.363348 4.000000
69.382830 11.000000
69.402313 7.000000
69.421795 12.000000
69.441278 12.000000
69.460760 9.000000
69.480242 7.000000
69.499725 9.000000
69.519207 8.000000
69.538689 9.000000
69.558172 11.000000
69.577654 6.000000
69.597136 13.000000
69.616619 5.000000
69.636101 3.000000
69.655584 6.000000
69.675066 7.000000
69.694548 7.000000
69.714031 3.000000
69.733513 13.000000
69.752995 5.000000
69.772478 7.000000
69.791960 7.000000
69.811443 6.000000
69.830925 8.000000
69.850407 7.000000
69.869890 9.000000
69.889372 4.000000
69.908854 6.000000
69.928337 3.000000
69.947819 7.000000
69.967301 5.000000
69.986784 1.000000
70.006266 12.000000
70.025749 3.000000
