4.000000 1595.000000
4.019482 1530.000000
4.038965 1561.000000
4.058447 1481.000000
4.077929 1458.000000
4.097412 1445.000000
4.116894 1447.000000
4.136377 1397.000000
4.155859 1435.000000
4.175341 1339.000000
4.194824 1372.000000
4.214306 1348.000000
4.233788 1362.000000
4.253271 1340.000000
4.272753 1333.000000
4.292236 1347.000000
4.311718 1307.000000
4.331200 1310.000000
4.350683 1270.000000
4.370165 1259.000000
4.389647 1228.000000
4.409130 1255.000000
4.428612 1229.000000
4.448094 1234.000000
4.467577 1236.000000
4.487059 1207.000000
4.506542 1269.000000
4.526024 1198.000000
4.545506 1217.000000
4.564989 1196.000000
4.584471 1188.000000
4.603953 1140.000000
4.623436 1107.000000
4.642918 1178.000000
4.662401 1160.000000
4.681883 1121.000000
4.701365 1115.000000
4.720848 1080.000000
4.740330 1083.000000
4.759812 1136.000000
4.779295 1122.000000
4.798777 1105.000000
4.818259 1078.000000
4.837742 1159.000000
4.857224 1097.000000
4.876707 1104.000000
4.896189 1053.000000
4.915671 1043.000000
4.935154 1076.000000
4.954636 1046.000000
4.974118 1017.000000
4.993601 1080.000000
5.013083 1055.000000
5.032566 1013.000000
5.052048 1046.000000
5.071530 1052.000000
5.091013 1001.000000
5.110495 1007.000000
5.129977 927.000000
5.149460 953.000000
5.168942 1094.000000
5.188425 996.000000
5.207907 968.000000
5.227389 1037.000000
5.246872 1010.000000
5.266354 1013.000000
5.285836 972.000000
5.305319 1000.000000
5.324801 961.000000
5.344283 977.000000
5.363766 960.000000
5.383248 959.000000
5.402731 961.000000
5.422213 970.000000
5.441695 986.000000
5.461178 911.000000
5.480660 990.000000
5.500142 962.000000
5.519625 953.000000
5.539107 966.000000
5.558590 962.000000
5.578072 982.000000
5.597554 956.000000
5.617037 931.000000
5.636519 946.000000
5.656001 901.000000
5.675484 930.000000
5.694966 995.000000
5.714448 935.000000
5.733931 944.000000
5.753413 956.000000
5.772896 959.000000
5.792378 931.000000
5.811860 956.000000
5.831343 913.000000
5.850825 914.000000
5.870307 942.000000
5.889790 951.000000
5.909272 904.000000
5.928755 914.000000
5.948237 893.000000
5.967719 887.000000
5.987202 885.000000
6.006684 894.000000
6.026166 880.000000
6.045649 924.000000
6.065131 912.000000
6.084613 869.000000
6.104096 873.000000
6.123578 908.000000
6.143061 927.000000
6.162543 897.000000
6.182025 905.000000
6.201508 853.000000
6.220990 883.000000
6.240472 879.000000
6.259955 836.000000
6.279437 910.000000
6.298920 916.000000
6.318402 845.000000
6.337884 839.000000
6.357367 866.000000
6.376849 868.000000
6.396331 881.000000
6.415814 858.000000
6.435296 879.000000
6.454778 904.000000
6.474261 852.000000
6.493743 867.000000
6.513226 872.000000
6.532708 878.000000
6.552190 802.000000
6.571673 846.000000
6.591155 835.000000
6.610637 847.000000
6.630120 836.000000
6.649602 828.000000
6.669085 816.000000
6.688567 825.000000
6.708049 805.000000
6.727532 822.000000
6.747014 886.000000
6.766496 830.000000
6.785979 830.000000
6.805461 833.000000
6.824944 843.000000
6.844426 816.000000
6.863908 858.000000
6.883391 826.000000
6.902873 801.000000
6.922355 840.000000
6.941838 797.000000
6.961320 791.000000
6.980802 867.000000
7.000285 870.000000
7.019767 812.000000
7.039250 817.000000
7.058732 803.000000
7.078214 805.000000
7.097697 830.000000
7.117179 831.000000
7.136661 845.000000
7.156144 825.000000
7.175626 816.000000
7.195109 848.000000
7.214591 793.000000
7.234073 796.000000
7.253556 788.000000
7.273038 796.000000
7.292520 813.000000
7.312003 802.000000
7.331485 808.000000
7.350967 781.000000
7.370450 815.000000
7.389932 797.000000
7.409415 861.000000
7.428897 802.000000
7.448379 814.000000
7.467862 782.000000
7.487344 820.000000
7.506826 825.000000
7.526309 795.000000
7.545791 834.000000
7.565274 763.000000
7.584756 796.000000
7.604238 797.000000
7.623721 745.000000
7.643203 783.000000
7.662685 837.000000
7.682168 836.000000
7.701650 772.000000
7.721132 785.000000
7.740615 811.000000
7.760097 792.000000
7.779580 799.000000
7.799062 816.000000
7.818544 757.000000
7.838027 762.000000
7.857509 763.000000
7.876991 834.000000
7.896474 787.000000
7.915956 788.000000
7.935439 771.000000
7.954921 785.000000
7.974403 787.000000
7.993886 756.000000
8.013368 799.000000
8.032850 812.000000
8.052333 776.000000
8.071815 838.000000
8.091297 831.000000
8.110780 848.000000
8.130262 837.000000
8.149745 790.000000
8.169227 769.000000
8.188709 813.000000
8.208192 780.000000
8.227674 762.000000
8.247156 830.000000
8.266639 826.000000
8.286121 783.000000
8.305604 768.000000
8.325086 741.000000
8.344568 764.000000
8.364051 790.000000
8.383533 787.000000
8.403015 767.000000
8.422498 738.000000
8.441980 812.000000
8.461463 793.000000
8.480945 804.000000
8.500427 776.000000
8.519910 791.000000
8.539392 768.000000
8.558874 787.000000
8.578357 764.000000
8.597839 798.000000
8.617321 776.000000
8.636804 755.000000
8.656286 756.000000
8.675769 765.000000
8.695251 731.000000
8.714733 742.000000
8.734216 811.000000
8.753698 747.000000
8.773180 820.000000
8.792663 789.000000
8.812145 743.000000
8.831628 806.000000
8.851110 806.000000
8.870592 786.000000
8.890075 802.000000
8.909557 772.000000
8.929039 767.000000
8.948522 779.000000
8.968004 758.000000
8.987486 812.000000
9.006969 778.000000
9.026451 768.000000
9.045934 769.000000
9.065416 774.000000
9.084898 789.000000
9.104381 785.000000
9.123863 768.000000
9.143345 761.000000
9.162828 738.000000
9.182310 730.000000
9.201793 762.000000
9.221275 809.000000
9.240757 788.000000
9.260240 751.000000
9.279722 777.000000
9.299204 774.000000
9.318687 779.000000
9.338169 778.000000
9.357651 760.000000
9.377134 733.000000
9.396616 812.000000
9.416099 749.000000
9.435581 755.000000
9.455063 781.000000
9.474546 778.000000
9.494028 762.000000
9.513510 771.000000
9.532993 760.000000
9.552475 768.000000
9.571958 791.000000
9.591440 760.000000
9.610922 792.000000
9.630405 761.000000
9.649887 791.000000
9.669369 781.000000
9.688852 794.000000
9.708334 785.000000
9.727816 755.000000
9.747299 776.000000
9.766781 766.000000
9.786264 830.000000
9.805746 808.000000
9.825228 787.000000
9.844711 774.000000
9.864193 761.000000
9.883675 819.000000
9.903158 737.000000
9.922640 756.000000
9.942123 803.000000
9.961605 757.000000
9.981087 775.000000
10.000570 776.000000
10.020052 784.000000
10.039534 830.000000
10.059017 765.000000
10.078499 799.000000
10.097982 723.000000
10.117464 743.000000
10.136946 732.000000
10.156429 731.000000
10.175911 685.000000
10.195393 781.000000
10.214876 746.000000
10.234358 738.000000
10.253840 778.000000
10.273323 813.000000
10.292805 755.000000
10.312288 790.000000
10.331770 778.000000
10.351252 741.000000
10.370735 792.000000
10.390217 755.000000
10.409699 737.000000
10.429182 784.000000
10.448664 744.000000
10.468147 751.000000
10.487629 778.000000
10.507111 779.000000
10.526594 770.000000
10.546076 724.000000
10.565558 779.000000
10.585041 720.000000
10.604523 739.000000
10.624005 795.000000
10.643488 744.000000
10.662970 717.000000
10.682453 778.000000
10.701935 820.000000
10.721417 768.000000
10.740900 727.000000
10.760382 754.000000
10.779864 791.000000
10.799347 730.000000
10.818829 732.000000
10.838312 764.000000
10.857794 824.000000
10.877276 771.000000
10.896759 733.000000
10.916241 769.000000
10.935723 775.000000
10.955206 781.000000
10.974688 795.000000
10.994170 794.000000
11.013653 796.000000
11.033135 757.000000
11.052618 768.000000
11.072100 717.000000
11.091582 782.000000
11.111065 790.000000
11.130547 787.000000
11.150029 783.000000
11.169512 715.000000
11.188994 774.000000
11.208477 749.000000
11.227959 766.000000
11.247441 766.000000
11.266924 724.000000
11.286406 826.000000
11.305888 757.000000
11.325371 789.000000
11.344853 813.000000
11.364335 749.000000
11.383818 759.000000
11.403300 796.000000
11.422783 774.000000
11.442265 804.000000
11.461747 779.000000
11.481230 785.000000
11.500712 721.000000
11.520194 733.000000
11.539677 737.000000
11.559159 769.000000
11.578642 797.000000
11.598124 843.000000
11.617606 727.000000
11.637089 808.000000
11.656571 831.000000
11.676053 751.000000
11.695536 728.000000
11.715018 785.000000
11.734500 829.000000
11.753983 758.000000
11.773465 744.000000
11.792948 792.000000
11.812430 757.000000
11.831912 749.000000
11.851395 748.000000
11.870877 794.000000
11.890359 768.000000
11.909842 773.000000
11.929324 751.000000
11.948807 758.000000
11.968289 732.000000
11.987771 809.000000
12.007254 746.000000
12.026736 773.000000
12.046218 753.000000
12.065701 760.000000
12.085183 786.000000
12.104666 734.000000
12.124148 767.000000
12.143630 783.000000
12.163113 771.000000
12.182595 717.000000
12.202077 803.000000
12.221560 734.000000
12.241042 770.000000
12.260524 762.000000
12.280007 797.000000
12.299489 752.000000
12.318972 805.000000
12.338454 777.000000
12.357936 775.000000
12.377419 773.000000
12.396901 771.000000
12.416383 780.000000
12.435866 758.000000
12.455348 772.000000
12.474831 697.000000
12.494313 768.000000
12.513795 776.000000
12.533278 712.000000
12.552760 759.000000
12.572242 791.000000
12.591725 769.000000
12.611207 736.000000
12.630689 757.000000
12.650172 746.000000
12.669654 734.000000
12.689137 750.000000
12.708619 798.000000
12.728101 757.000000
12.747584 806.000000
12.767066 710.000000
12.786548 790.000000
12.806031 797.000000
12.825513 785.000000
12.844996 756.000000
12.864478 798.000000
12.883960 817.000000
12.903443 782.000000
12.922925 747.000000
12.942407 800.000000
12.961890 762.000000
12.981372 690.000000
13.000854 770.000000
13.020337 758.000000
13.039819 754.000000
13.059302 781.000000
13.078784 748.000000
13.098266 778.000000
13.117749 718.000000
13.137231 748.000000
13.156713 806.000000
13.176196 797.000000
13.195678 761.000000
13.215161 746.000000
13.234643 743.000000
13.254125 765.000000
13.273608 758.000000
13.293090 747.000000
13.312572 771.000000
13.332055 733.000000
13.351537 759.000000
13.371019 732.000000
13.390502 746.000000
13.409984 740.000000
13.429467 769.000000
13.448949 790.000000
13.468431 793.000000
13.487914 792.000000
13.507396 775.000000
13.526878 763.000000
13.546361 745.000000
13.565843 781.000000
13.585326 794.000000
13.604808 715.000000
13.624290 723.000000
13.643773 769.000000
13.663255 779.000000
13.682737 751.000000
13.702220 718.000000
13.721702 775.000000
13.741185 727.000000
13.760667 807.000000
13.780149 770.000000
13.799632 749.000000
13.819114 761.000000
13.838596 768.000000
13.858079 795.000000
13.877561 807.000000
13.897043 755.000000
13.916526 776.000000
13.936008 747.000000
13.955491 732.000000
13.974973 814.000000
13.994455 752.000000
14.013938 789.000000
14.033420 776.000000
14.052902 752.000000
14.072385 725.000000
14.091867 731.000000
14.111350 754.000000
14.130832 761.000000
14.150314 701.000000
14.169797 746.000000
14.189279 765.000000
14.208761 783.000000
14.228244 750.000000
14.247726 826.000000
14.267208 823.000000
14.286691 734.000000
14.306173 754.000000
14.325656 760.000000
14.345138 753.000000
14.364620 755.000000
14.384103 756.000000
14.403585 794.000000
14.423067 733.000000
14.442550 742.000000
14.462032 784.000000
14.481515 786.000000
14.500997 773.000000
14.520479 825.000000
14.539962 771.000000
14.559444 731.000000
14.578926 770.000000
14.598409 782.000000
14.617891 746.000000
14.637373 747.000000
14.656856 794.000000
14.676338 788.000000
14.695821 770.000000
14.715303 788.000000
14.734785 763.000000
14.754268 762.000000
14.773750 736.000000
14.793232 748.000000
14.812715 795.000000
14.832197 744.000000
14.851680 799.000000
14.871162 741.000000
14.890644 781.000000
14.910127 711.000000
14.929609 793.000000
14.949091 803.000000
14.968574 751.000000
14.988056 738.000000
15.007538 766.000000
15.027021 749.000000
15.046503 742.000000
15.065986 787.000000
15.085468 710.000000
15.104950 726.000000
15.124433 765.000000
15.143915 743.000000
15.163397 825.000000
15.182880 756.000000
15.202362 723.000000
15.221845 702.000000
15.241327 728.000000
15.260809 766.000000
15.280292 758.000000
15.299774 711.000000
15.319256 717.000000
15.338739 754.000000
15.358221 789.000000
15.377704 756.000000
15.397186 719.000000
15.416668 735.000000
15.436151 749.000000
15.455633 769.000000
15.475115 702.000000
15.494598 783.000000
15.514080 792.000000
15.533562 762.000000
15.553045 769.000000
15.572527 716.000000
15.592010 774.000000
15.611492 735.000000
15.630974 785.000000
15.650457 743.000000
15.669939 730.000000
15.689421 813.000000
15.708904 781.000000
15.728386 717.000000
15.747869 741.000000
15.767351 726.000000
15.786833 744.000000
15.806316 777.000000
15.825798 794.000000
15.845280 803.000000
15.864763 790.000000
15.884245 776.000000
15.903727 694.000000
15.923210 725.000000
15.942692 717.000000
15.962175 743.000000
15.981657 730.000000
16.001139 733.000000
16.020622 772.000000
16.040104 740.000000
16.059586 780.000000
16.079069 801.000000
16.098551 750.000000
16.118034 775.000000
16.137516 714.000000
16.156998 729.000000
16.176481 763.000000
16.195963 750.000000
16.215445 770.000000
16.234928 720.000000
16.254410 791.000000
16.273892 778.000000
16.293375 797.000000
16.312857 746.000000
16.332340 790.000000
16.351822 734.000000
16.371304 787.000000
16.390787 817.000000
16.410269 738.000000
16.429751 736.000000
16.449234 809.000000
16.468716 766.000000
16.488199 720.000000
16.507681 772.000000
16.527163 749.000000
16.546646 797.000000
16.566128 793.000000
16.585610 768.000000
16.605093 747.000000
16.624575 731.000000
16.644057 746.000000
16.663540 742.000000
16.683022 724.000000
16.702505 735.000000
16.721987 775.000000
16.741469 756.000000
16.760952 786.000000
16.780434 744.000000
16.799916 777.000000
16.819399 746.000000
16.838881 709.000000
16.858364 753.000000
16.877846 779.000000
16.897328 789.000000
16.916811 729.000000
16.936293 764.000000
16.955775 746.000000
16.975258 774.000000
16.994740 750.000000
17.014222 732.000000
17.033705 731.000000
17.053187 750.000000
17.072670 773.000000
17.092152 751.000000
17.111634 742.000000
17.131117 725.000000
17.150599 745.000000
17.170081 732.000000
17.189564 781.000000
17.209046 750.000000
17.228529 723.000000
17.248011 764.000000
17.267493 706.000000
17.286976 789.000000
17.306458 789.000000
17.325940 737.000000
17.345423 743.000000
17.364905 743.000000
17.384388 746.000000
17.403870 742.000000
17.423352 769.000000
17.442835 841.000000
17.462317 740.000000
17.481799 741.000000
17.501282 772.000000
17.520764 779.000000
17.540246 736.000000
17.559729 775.000000
17.579211 741.000000
17.598694 782.000000
17.618176 727.000000
17.637658 739.000000
17.657141 813.000000
17.676623 764.000000
17.696105 764.000000
17.715588 714.000000
17.735070 740.000000
17.754553 780.000000
17.774035 747.000000
17.793517 768.000000
17.813000 756.000000
17.832482 690.000000
17.851964 737.000000
17.871447 773.000000
17.890929 739.000000
17.910411 731.000000
17.929894 727.000000
17.949376 751.000000
17.968859 727.000000
17.988341 728.000000
18.007823 791.000000
18.027306 776.000000
18.046788 760.000000
18.066270 745.000000
18.085753 778.000000
18.105235 740.000000
18.124718 746.000000
18.144200 734.000000
18.163682 777.000000
18.183165 782.000000
18.202647 808.000000
18.222129 737.000000
18.241612 776.000000
18.261094 744.000000
18.280576 787.000000
18.300059 765.000000
18.319541 754.000000
18.339024 754.000000
18.358506 742.000000
18.377988 743.000000
18.397471 716.000000
18.416953 749.000000
18.436435 701.000000
18.455918 689.000000
18.475400 754.000000
18.494883 736.000000
18.514365 701.000000
18.533847 758.000000
18.553330 724.000000
18.572812 780.000000
18.592294 734.000000
18.611777 761.000000
18.631259 762.000000
18.650741 757.000000
18.670224 742.000000
18.689706 773.000000
18.709189 800.000000
18.728671 722.000000
18.748153 775.000000
18.767636 769.000000
18.787118 716.000000
18.806600 728.000000
18.826083 772.000000
18.845565 780.000000
18.865048 813.000000
18.884530 756.000000
18.904012 772.000000
18.923495 784.000000
18.942977 761.000000
18.962459 796.000000
18.981942 771.000000
19.001424 747.000000
19.020907 705.000000
19.040389 764.000000
19.059871 755.000000
19.079354 751.000000
19.098836 774.000000
19.118318 762.000000
19.137801 787.000000
19.157283 753.000000
19.176765 752.000000
19.196248 786.000000
19.215730 747.000000
19.235213 739.000000
19.254695 735.000000
19.274177 725.000000
19.293660 737.000000
19.313142 731.000000
19.332624 722.000000
19.352107 750.000000
19.371589 799.000000
19.391072 747.000000
19.410554 750.000000
19.430036 727.000000
19.449519 758.000000
19.469001 765.000000
19.488483 723.000000
19.507966 748.000000
19.527448 760.000000
19.546930 766.000000
19.566413 733.000000
19.585895 741.000000
19.605378 726.000000
19.624860 730.000000
19.644342 728.000000
19.663825 783.000000
19.683307 749.000000
19.702789 700.000000
19.722272 713.000000
19.741754 755.000000
19.761237 785.000000
19.780719 746.000000
19.800201 740.000000
19.819684 756.000000
19.839166 796.000000
19.858648 767.000000
19.878131 762.000000
19.897613 722.000000
19.917095 746.000000
19.936578 757.000000
19.956060 746.000000
19.975543 743.000000
19.995025 696.000000
20.014507 734.000000
20.033990 752.000000
20.053472 757.000000
20.072954 733.000000
20.092437 760.000000
20.111919 779.000000
20.131402 764.000000
20.150884 723.000000
20.170366 765.000000
20.189849 763.000000
20.209331 773.000000
20.228813 732.000000
20.248296 735.000000
20.267778 772.000000
20.287260 747.000000
20.306743 780.000000
20.326225 743.000000
20.345708 805.000000
20.365190 743.000000
20.384672 782.000000
20.404155 746.000000
20.423637 829.000000
20.443119 766.000000
20.462602 742.000000
20.482084 714.000000
20.501567 751.000000
20.521049 743.000000
20.540531 728.000000
20.560014 797.000000
20.579496 717.000000
20.598978 778.000000
20.618461 757.000000
20.637943 765.000000
20.657426 733.000000
20.676908 776.000000
20.696390 720.000000
20.715873 768.000000
20.735355 749.000000
20.754837 799.000000
20.774320 734.000000
20.793802 747.000000
20.813284 747.000000
20.832767 733.000000
20.852249 754.000000
20.871732 730.000000
20.891214 737.000000
20.910696 709.000000
20.930179 728.000000
20.949661 756.000000
20.969143 747.000000
20.988626 757.000000
21.008108 728.000000
21.027591 793.000000
21.047073 751.000000
21.066555 777.000000
21.086038 742.000000
21.105520 757.000000
21.125002 742.000000
21.144485 772.000000
21.163967 771.000000
21.183449 736.000000
21.202932 723.000000
21.222414 769.000000
21.241897 756.000000
21.261379 756.000000
21.280861 721.000000
21.300344 728.000000
21.319826 773.000000
21.339308 808.000000
21.358791 728.000000
21.378273 795.000000
21.397756 760.000000
21.417238 785.000000
21.436720 743.000000
21.456203 740.000000
21.475685 758.000000
21.495167 738.000000
21.514650 760.000000
21.534132 793.000000
21.553614 768.000000
21.573097 809.000000
21.592579 742.000000
21.612062 807.000000
21.631544 735.000000
21.651026 729.000000
21.670509 723.000000
21.689991 751.000000
21.709473 744.000000
21.728956 781.000000
21.748438 826.000000
21.767921 730.000000
21.787403 754.000000
21.806885 754.000000
21.826368 811.000000
21.845850 747.000000
21.865332 722.000000
21.884815 755.000000
21.904297 789.000000
21.923779 772.000000
21.943262 732.000000
21.962744 711.000000
21.982227 811.000000
22.001709 734.000000
22.021191 797.000000
22.040674 726.000000
22.060156 765.000000
22.079638 738.000000
22.099121 772.000000
22.118603 737.000000
22.138086 771.000000
22.157568 793.000000
22.177050 794.000000
22.196533 745.000000
22.216015 757.000000
22.235497 787.000000
22.254980 769.000000
22.274462 717.000000
22.293945 755.000000
22.313427 787.000000
22.332909 778.000000
22.352392 753.000000
22.371874 756.000000
22.391356 733.000000
22.410839 754.000000
22.430321 774.000000
22.449803 770.000000
22.469286 777.000000
22.488768 730.000000
22.508251 753.000000
22.527733 721.000000
22.547215 774.000000
22.566698 709.000000
22.586180 745.000000
22.605662 755.000000
22.625145 809.000000
22.644627 829.000000
22.664110 717.000000
22.683592 787.000000
22.703074 811.000000
22.722557 711.000000
22.742039 759.000000
22.761521 701.000000
22.781004 752.000000
22.800486 790.000000
22.819968 738.000000
22.839451 742.000000
22.858933 759.000000
22.878416 787.000000
22.897898 773.000000
22.917380 783.000000
22.936863 719.000000
22.956345 752.000000
22.975827 760.000000
22.995310 737.000000
23.014792 747.000000
23.034275 773.000000
23.053757 815.000000
23.073239 785.000000
23.092722 770.000000
23.112204 769.000000
23.131686 766.000000
23.151169 770.000000
23.170651 755.000000
23.190133 748.000000
23.209616 738.000000
23.229098 766.000000
23.248581 755.000000
23.268063 730.000000
23.287545 739.000000
23.307028 695.000000
23.326510 753.000000
23.345992 736.000000
23.365475 726.000000
23.384957 765.000000
23.404440 748.000000
23.423922 755.000000
23.443404 769.000000
23.462887 761.000000
23.482369 728.000000
23.501851 765.000000
23.521334 783.000000
23.540816 751.000000
23.560298 799.000000
23.579781 802.000000
23.599263 765.000000
23.618746 713.000000
23.638228 781.000000
23.657710 729.000000
23.677193 772.000000
23.696675 815.000000
23.716157 764.000000
23.735640 806.000000
23.755122 778.000000
23.774605 765.000000
23.794087 730.000000
23.813569 789.000000
23.833052 760.000000
23.852534 754.000000
23.872016 778.000000
23.891499 782.000000
23.910981 731.000000
23.930463 761.000000
23.949946 743.000000
23.969428 763.000000
23.988911 770.000000
24.008393 767.000000
24.027875 737.000000
24.047358 793.000000
24.066840 774.000000
24.086322 712.000000
24.105805 762.000000
24.125287 721.000000
24.144770 768.000000
24.164252 776.000000
24.183734 694.000000
24.203217 753.000000
24.222699 785.000000
24.242181 797.000000
24.261664 760.000000
24.281146 787.000000
24.300629 794.000000
24.320111 775.000000
24.339593 787.000000
24.359076 766.000000
24.378558 769.000000
24.398040 789.000000
24.417523 726.000000
24.437005 745.000000
24.456487 806.000000
24.475970 826.000000
24.495452 779.000000
24.514935 770.000000
24.534417 761.000000
24.553899 750.000000
24.573382 767.000000
24.592864 749.000000
24.612346 741.000000
24.631829 771.000000
24.651311 806.000000
24.670794 764.000000
24.690276 805.000000
24.709758 770.000000
24.729241 779.000000
24.748723 818.000000
24.768205 724.000000
24.787688 808.000000
24.807170 753.000000
24.826652 746.000000
24.846135 743.000000
24.865617 750.000000
24.885100 768.000000
24.904582 785.000000
24.924064 795.000000
24.943547 791.000000
24.963029 793.000000
24.982511 721.000000
25.001994 765.000000
25.021476 741.000000
25.040959 756.000000
25.060441 789.000000
25.079923 730.000000
25.099406 772.000000
25.118888 753.000000
25.138370 727.000000
25.157853 786.000000
25.177335 734.000000
25.196817 761.000000
25.216300 807.000000
25.235782 770.000000
25.255265 825.000000
25.274747 769.000000
25.294229 824.000000
25.313712 763.000000
25.333194 780.000000
25.352676 790.000000
25.372159 760.000000
25.391641 785.000000
25.411124 792.000000
25.430606 774.000000
25.450088 725.000000
25.469571 785.000000
25.489053 780.000000
25.508535 753.000000
25.528018 690.000000
25.547500 747.000000
25.566982 778.000000
25.586465 750.000000
25.605947 776.000000
25.625430 760.000000
25.644912 763.000000
25.664394 766.000000
25.683877 772.000000
25.703359 779.000000
25.722841 753.000000
25.742324 829.000000
25.761806 733.000000
25.781289 763.000000
25.800771 739.000000
25.820253 800.000000
25.839736 765.000000
25.859218 779.000000
25.878700 767.000000
25.898183 787.000000
25.917665 750.000000
25.937148 783.000000
25.956630 776.000000
25.976112 714.000000
25.995595 768.000000
26.015077 806.000000
26.034559 778.000000
26.054042 767.000000
26.073524 748.000000
26.093006 750.000000
26.112489 753.000000
26.131971 771.000000
26.151454 789.000000
26.170936 724.000000
26.190418 768.000000
26.209901 758.000000
26.229383 799.000000
26.248865 751.000000
26.268348 744.000000
26.287830 772.000000
26.307313 782.000000
26.326795 766.000000
26.346277 792.000000
26.365760 791.000000
26.385242 773.000000
26.404724 772.000000
26.424207 753.000000
26.443689 803.000000
26.463171 764.000000
26.482654 769.000000
26.502136 777.000000
26.521619 775.000000
26.541101 775.000000
26.560583 799.000000
26.580066 778.000000
26.599548 751.000000
26.619030 814.000000
26.638513 772.000000
26.657995 802.000000
26.677478 752.000000
26.696960 776.000000
26.716442 788.000000
26.735925 733.000000
26.755407 746.000000
26.774889 776.000000
26.794372 797.000000
26.813854 797.000000
26.833336 786.000000
26.852819 777.000000
26.872301 782.000000
26.891784 777.000000
26.911266 735.000000
26.930748 735.000000
26.950231 829.000000
26.969713 782.000000
26.989195 755.000000
27.008678 728.000000
27.028160 803.000000
27.047643 775.000000
27.067125 805.000000
27.086607 785.000000
27.106090 800.000000
27.125572 773.000000
27.145054 732.000000
27.164537 749.000000
27.184019 721.000000
27.203501 765.000000
27.222984 752.000000
27.242466 783.000000
27.261949 800.000000
27.281431 771.000000
27.300913 762.000000
27.320396 761.000000
27.339878 822.000000
27.359360 748.000000
27.378843 713.000000
27.398325 781.000000
27.417808 754.000000
27.437290 766.000000
27.456772 811.000000
27.476255 752.000000
27.495737 775.000000
27.515219 796.000000
27.534702 814.000000
27.554184 830.000000
27.573667 773.000000
27.593149 788.000000
27.612631 804.000000
27.632114 791.000000
27.651596 748.000000
27.671078 842.000000
27.690561 774.000000
27.710043 751.000000
27.729525 749.000000
27.749008 794.000000
27.768490 760.000000
27.787973 750.000000
27.807455 759.000000
27.826937 770.000000
27.846420 812.000000
27.865902 783.000000
27.885384 810.000000
27.904867 767.000000
27.924349 787.000000
27.943832 810.000000
27.963314 787.000000
27.982796 798.000000
28.002279 765.000000
28.021761 762.000000
28.041243 720.000000
28.060726 813.000000
28.080208 822.000000
28.099690 805.000000
28.119173 809.000000
28.138655 826.000000
28.158138 742.000000
28.177620 792.000000
28.197102 784.000000
28.216585 755.000000
28.236067 779.000000
28.255549 807.000000
28.275032 793.000000
28.294514 813.000000
28.313997 767.000000
28.333479 849.000000
28.352961 829.000000
28.372444 793.000000
28.391926 836.000000
28.411408 811.000000
28.430891 889.000000
28.450373 974.000000
28.469855 1326.000000
28.489338 2016.000000
28.508820 2755.000000
28.528303 2318.000000
28.547785 1598.000000
28.567267 1666.000000
28.586750 1783.000000
28.606232 1386.000000
28.625714 1031.000000
28.645197 850.000000
28.664679 821.000000
28.684162 775.000000
28.703644 860.000000
28.723126 813.000000
28.742609 751.000000
28.762091 801.000000
28.781573 762.000000
28.801056 756.000000
28.820538 748.000000
28.840020 762.000000
28.859503 790.000000
28.878985 807.000000
28.898468 753.000000
28.917950 791.000000
28.937432 825.000000
28.956915 778.000000
28.976397 751.000000
28.995879 791.000000
29.015362 723.000000
29.034844 814.000000
29.054327 768.000000
29.073809 771.000000
29.093291 766.000000
29.112774 772.000000
29.132256 767.000000
29.151738 760.000000
29.171221 832.000000
29.190703 806.000000
29.210185 871.000000
29.229668 767.000000
29.249150 771.000000
29.268633 771.000000
29.288115 764.000000
29.307597 760.000000
29.327080 814.000000
29.346562 797.000000
29.366044 775.000000
29.385527 811.000000
29.405009 844.000000
29.424492 815.000000
29.443974 782.000000
29.463456 778.000000
29.482939 812.000000
29.502421 843.000000
29.521903 754.000000
29.541386 798.000000
29.560868 743.000000
29.580351 880.000000
29.599833 803.000000
29.619315 807.000000
29.638798 847.000000
29.658280 758.000000
29.677762 827.000000
29.697245 851.000000
29.716727 804.000000
29.736209 807.000000
29.755692 815.000000
29.775174 819.000000
29.794657 791.000000
29.814139 774.000000
29.833621 776.000000
29.853104 789.000000
29.872586 815.000000
29.892068 833.000000
29.911551 765.000000
29.931033 780.000000
29.950516 759.000000
29.969998 807.000000
29.989480 785.000000
30.008963 749.000000
30.028445 768.000000
30.047927 784.000000
30.067410 794.000000
30.086892 804.000000
30.106374 796.000000
30.125857 795.000000
30.145339 794.000000
30.164822 794.000000
30.184304 741.000000
30.203786 797.000000
30.223269 799.000000
30.242751 757.000000
30.262233 737.000000
30.281716 746.000000
30.301198 786.000000
30.320681 780.000000
30.340163 817.000000
30.359645 768.000000
30.379128 818.000000
30.398610 755.000000
30.418092 818.000000
30.437575 786.000000
30.457057 828.000000
30.476539 755.000000
30.496022 821.000000
30.515504 801.000000
30.534987 792.000000
30.554469 790.000000
30.573951 815.000000
30.593434 768.000000
30.612916 779.000000
30.632398 795.000000
30.651881 791.000000
30.671363 776.000000
30.690846 808.000000
30.710328 831.000000
30.729810 778.000000
30.749293 807.000000
30.768775 789.000000
30.788257 768.000000
30.807740 823.000000
30.827222 758.000000
30.846704 781.000000
30.866187 836.000000
30.885669 827.000000
30.905152 825.000000
30.924634 846.000000
30.944116 839.000000
30.963599 783.000000
30.983081 795.000000
31.002563 768.000000
31.022046 798.000000
31.041528 817.000000
31.061011 821.000000
31.080493 815.000000
31.099975 818.000000
31.119458 812.000000
31.138940 845.000000
31.158422 762.000000
31.177905 782.000000
31.197387 856.000000
31.216870 799.000000
31.236352 762.000000
31.255834 784.000000
31.275317 780.000000
31.294799 823.000000
31.314281 823.000000
31.333764 796.000000
31.353246 784.000000
31.372728 824.000000
31.392211 749.000000
31.411693 780.000000
31.431176 810.000000
31.450658 759.000000
31.470140 758.000000
31.489623 777.000000
31.509105 844.000000
31.528587 799.000000
31.548070 782.000000
31.567552 770.000000
31.587035 825.000000
31.606517 752.000000
31.625999 816.000000
31.645482 758.000000
31.664964 778.000000
31.684446 857.000000
31.703929 847.000000
31.723411 778.000000
31.742893 775.000000
31.762376 770.000000
31.781858 812.000000
31.801341 783.000000
31.820823 810.000000
31.840305 784.000000
31.859788 788.000000
31.879270 801.000000
31.898752 780.000000
31.918235 821.000000
31.937717 823.000000
31.957200 733.000000
31.976682 820.000000
31.996164 764.000000
32.015647 749.000000
32.035129 818.000000
32.054611 828.000000
32.074094 755.000000
32.093576 803.000000
32.113058 840.000000
32.132541 777.000000
32.152023 797.000000
32.171506 802.000000
32.190988 799.000000
32.210470 785.000000
32.229953 850.000000
32.249435 796.000000
32.268917 782.000000
32.288400 815.000000
32.307882 799.000000
32.327365 804.000000
32.346847 891.000000
32.366329 805.000000
32.385812 760.000000
32.405294 780.000000
32.424776 802.000000
32.444259 835.000000
32.463741 812.000000
32.483223 797.000000
32.502706 841.000000
32.522188 770.000000
32.541671 743.000000
32.561153 782.000000
32.580635 797.000000
32.600118 782.000000
32.619600 819.000000
32.639082 765.000000
32.658565 827.000000
32.678047 851.000000
32.697530 743.000000
32.717012 786.000000
32.736494 795.000000
32.755977 805.000000
32.775459 818.000000
32.794941 819.000000
32.814424 854.000000
32.833906 814.000000
32.853389 851.000000
32.872871 869.000000
32.892353 846.000000
32.911836 935.000000
32.931318 943.000000
32.950800 974.000000
32.970283 1237.000000
32.989765 1607.000000
33.009247 2697.000000
33.028730 5164.000000
33.048212 6149.000000
33.067695 3238.000000
33.087177 2074.000000
33.106659 2584.000000
33.126142 3744.000000
33.145624 2458.000000
33.165106 1355.000000
33.184589 998.000000
33.204071 967.000000
33.223554 903.000000
33.243036 927.000000
33.262518 868.000000
33.282001 876.000000
33.301483 824.000000
33.320965 845.000000
33.340448 821.000000
33.359930 794.000000
33.379412 787.000000
33.398895 812.000000
33.418377 867.000000
33.437860 808.000000
33.457342 807.000000
33.476824 821.000000
33.496307 844.000000
33.515789 834.000000
33.535271 795.000000
33.554754 831.000000
33.574236 856.000000
33.593719 855.000000
33.613201 877.000000
33.632683 785.000000
33.652166 830.000000
33.671648 826.000000
33.691130 831.000000
33.710613 809.000000
33.730095 851.000000
33.749577 739.000000
33.769060 808.000000
33.788542 819.000000
33.808025 812.000000
33.827507 860.000000
33.846989 818.000000
33.866472 793.000000
33.885954 817.000000
33.905436 796.000000
33.924919 796.000000
33.944401 810.000000
33.963884 779.000000
33.983366 862.000000
34.002848 770.000000
34.022331 807.000000
34.041813 847.000000
34.061295 798.000000
34.080778 820.000000
34.100260 806.000000
34.119742 833.000000
34.139225 853.000000
34.158707 817.000000
34.178190 775.000000
34.197672 779.000000
34.217154 832.000000
34.236637 825.000000
34.256119 799.000000
34.275601 795.000000
34.295084 781.000000
34.314566 775.000000
34.334049 807.000000
34.353531 799.000000
34.373013 754.000000
34.392496 806.000000
34.411978 842.000000
34.431460 810.000000
34.450943 779.000000
34.470425 763.000000
34.489908 860.000000
34.509390 826.000000
34.528872 829.000000
34.548355 817.000000
34.567837 858.000000
34.587319 824.000000
34.606802 850.000000
34.626284 782.000000
34.645766 858.000000
34.665249 800.000000
34.684731 805.000000
34.704214 764.000000
34.723696 811.000000
34.743178 819.000000
34.762661 785.000000
34.782143 829.000000
34.801625 813.000000
34.821108 826.000000
34.840590 791.000000
34.860073 829.000000
34.879555 793.000000
34.899037 803.000000
34.918520 773.000000
34.938002 769.000000
34.957484 802.000000
34.976967 830.000000
34.996449 813.000000
35.015931 774.000000
35.035414 783.000000
35.054896 804.000000
35.074379 822.000000
35.093861 794.000000
35.113343 794.000000
35.132826 829.000000
35.152308 837.000000
35.171790 801.000000
35.191273 843.000000
35.210755 841.000000
35.230238 809.000000
35.249720 804.000000
35.269202 766.000000
35.288685 857.000000
35.308167 812.000000
35.327649 783.000000
35.347132 823.000000
35.366614 732.000000
35.386096 828.000000
35.405579 750.000000
35.425061 837.000000
35.444544 824.000000
35.464026 760.000000
35.483508 818.000000
35.502991 829.000000
35.522473 805.000000
35.541955 818.000000
35.561438 816.000000
35.580920 790.000000
35.600403 776.000000
35.619885 805.000000
35.639367 829.000000
35.658850 824.000000
35.678332 807.000000
35.697814 859.000000
35.717297 807.000000
35.736779 828.000000
35.756261 800.000000
35.775744 830.000000
35.795226 841.000000
35.814709 829.000000
35.834191 860.000000
35.853673 825.000000
35.873156 791.000000
35.892638 785.000000
35.912120 761.000000
35.931603 776.000000
35.951085 804.000000
35.970568 811.000000
35.990050 855.000000
36.009532 842.000000
36.029015 826.000000
36.048497 803.000000
36.067979 809.000000
36.087462 832.000000
36.106944 800.000000
36.126426 771.000000
36.145909 769.000000
36.165391 834.000000
36.184874 774.000000
36.204356 852.000000
36.223838 832.000000
36.243321 800.000000
36.262803 802.000000
36.282285 806.000000
36.301768 847.000000
36.321250 815.000000
36.340733 797.000000
36.360215 817.000000
36.379697 847.000000
36.399180 782.000000
36.418662 775.000000
36.438144 848.000000
36.457627 833.000000
36.477109 824.000000
36.496592 822.000000
36.516074 829.000000
36.535556 805.000000
36.555039 835.000000
36.574521 810.000000
36.594003 792.000000
36.613486 811.000000
36.632968 812.000000
36.652450 822.000000
36.671933 831.000000
36.691415 864.000000
36.710898 839.000000
36.730380 832.000000
36.749862 849.000000
36.769345 885.000000
36.788827 799.000000
36.808309 849.000000
36.827792 875.000000
36.847274 849.000000
36.866757 840.000000
36.886239 826.000000
36.905721 883.000000
36.925204 944.000000
36.944686 878.000000
36.964168 889.000000
36.983651 908.000000
37.003133 1033.000000
37.022615 1275.000000
37.042098 1720.000000
37.061580 2355.000000
37.081063 2871.000000
37.100545 2388.000000
37.120027 1565.000000
37.139510 1452.000000
37.158992 1682.000000
37.178474 1980.000000
37.197957 1633.000000
37.217439 1065.000000
37.236922 962.000000
37.256404 883.000000
37.275886 828.000000
37.295369 862.000000
37.314851 848.000000
37.334333 880.000000
37.353816 883.000000
37.373298 838.000000
37.392780 885.000000
37.412263 841.000000
37.431745 817.000000
37.451228 857.000000
37.470710 877.000000
37.490192 863.000000
37.509675 839.000000
37.529157 855.000000
37.548639 839.000000
37.568122 732.000000
37.587604 870.000000
37.607087 833.000000
37.626569 826.000000
37.646051 843.000000
37.665534 819.000000
37.685016 866.000000
37.704498 821.000000
37.723981 802.000000
37.743463 842.000000
37.762945 792.000000
37.782428 875.000000
37.801910 870.000000
37.821393 797.000000
37.840875 779.000000
37.860357 808.000000
37.879840 848.000000
37.899322 832.000000
37.918804 844.000000
37.938287 782.000000
37.957769 813.000000
37.977252 830.000000
37.996734 826.000000
38.016216 774.000000
38.035699 807.000000
38.055181 853.000000
38.074663 866.000000
38.094146 847.000000
38.113628 765.000000
38.133111 839.000000
38.152593 861.000000
38.172075 819.000000
38.191558 871.000000
38.211040 816.000000
38.230522 814.000000
38.250005 805.000000
38.269487 818.000000
38.288969 808.000000
38.308452 844.000000
38.327934 775.000000
38.347417 841.000000
38.366899 836.000000
38.386381 842.000000
38.405864 840.000000
38.425346 789.000000
38.444828 791.000000
38.464311 797.000000
38.483793 841.000000
38.503276 865.000000
38.522758 796.000000
38.542240 802.000000
38.561723 827.000000
38.581205 845.000000
38.600687 814.000000
38.620170 866.000000
38.639652 858.000000
38.659134 868.000000
38.678617 844.000000
38.698099 831.000000
38.717582 788.000000
38.737064 833.000000
38.756546 820.000000
38.776029 833.000000
38.795511 794.000000
38.814993 837.000000
38.834476 792.000000
38.853958 804.000000
38.873441 795.000000
38.892923 793.000000
38.912405 783.000000
38.931888 809.000000
38.951370 794.000000
38.970852 858.000000
38.990335 839.000000
39.009817 809.000000
39.029299 818.000000
39.048782 792.000000
39.068264 866.000000
39.087747 817.000000
39.107229 820.000000
39.126711 830.000000
39.146194 846.000000
39.165676 828.000000
39.185158 752.000000
39.204641 811.000000
39.224123 830.000000
39.243606 897.000000
39.263088 825.000000
39.282570 853.000000
39.302053 790.000000
39.321535 841.000000
39.341017 822.000000
39.360500 873.000000
39.379982 819.000000
39.399464 835.000000
39.418947 854.000000
39.438429 831.000000
39.457912 831.000000
39.477394 807.000000
39.496876 830.000000
39.516359 828.000000
39.535841 820.000000
39.555323 882.000000
39.574806 843.000000
39.594288 834.000000
39.613771 849.000000
39.633253 853.000000
39.652735 846.000000
39.672218 918.000000
39.691700 826.000000
39.711182 799.000000
39.730665 804.000000
39.750147 816.000000
39.769630 841.000000
39.789112 837.000000
39.808594 838.000000
39.828077 859.000000
39.847559 784.000000
39.867041 876.000000
39.886524 821.000000
39.906006 857.000000
39.925488 830.000000
39.944971 810.000000
39.964453 847.000000
39.983936 862.000000
40.003418 872.000000
40.022900 871.000000
40.042383 823.000000
40.061865 791.000000
40.081347 823.000000
40.100830 824.000000
40.120312 792.000000
40.139795 830.000000
40.159277 871.000000
40.178759 862.000000
40.198242 868.000000
40.217724 825.000000
40.237206 786.000000
40.256689 872.000000
40.276171 792.000000
40.295653 832.000000
40.315136 853.000000
40.334618 811.000000
40.354101 844.000000
40.373583 884.000000
40.393065 820.000000
40.412548 825.000000
40.432030 827.000000
40.451512 864.000000
40.470995 843.000000
40.490477 825.000000
40.509960 835.000000
40.529442 870.000000
40.548924 918.000000
40.568407 886.000000
40.587889 899.000000
40.607371 861.000000
40.626854 901.000000
40.646336 886.000000
40.665818 912.000000
40.685301 987.000000
40.704783 1168.000000
40.724266 1452.000000
40.743748 2307.000000
40.763230 3089.000000
40.782713 2628.000000
40.802195 1557.000000
40.821677 1290.000000
40.841160 1521.000000
40.860642 1892.000000
40.880125 1941.000000
40.899607 1430.000000
40.919089 1025.000000
40.938572 910.000000
40.958054 994.000000
40.977536 926.000000
40.997019 923.000000
41.016501 898.000000
41.035983 864.000000
41.055466 883.000000
41.074948 879.000000
41.094431 830.000000
41.113913 863.000000
41.133395 876.000000
41.152878 896.000000
41.172360 882.000000
41.191842 858.000000
41.211325 892.000000
41.230807 828.000000
41.250290 877.000000
41.269772 802.000000
41.289254 795.000000
41.308737 769.000000
41.328219 829.000000
41.347701 850.000000
41.367184 846.000000
41.386666 840.000000
41.406149 835.000000
41.425631 841.000000
41.445113 829.000000
41.464596 822.000000
41.484078 850.000000
41.503560 835.000000
41.523043 843.000000
41.542525 825.000000
41.562007 815.000000
41.581490 805.000000
41.600972 827.000000
41.620455 868.000000
41.639937 875.000000
41.659419 831.000000
41.678902 871.000000
41.698384 842.000000
41.717866 829.000000
41.737349 813.000000
41.756831 860.000000
41.776314 870.000000
41.795796 825.000000
41.815278 850.000000
41.834761 880.000000
41.854243 862.000000
41.873725 891.000000
41.893208 860.000000
41.912690 813.000000
41.932172 778.000000
41.951655 843.000000
41.971137 839.000000
41.990620 846.000000
42.010102 762.000000
42.029584 898.000000
42.049067 819.000000
42.068549 778.000000
42.088031 854.000000
42.107514 816.000000
42.126996 843.000000
42.146479 817.000000
42.165961 805.000000
42.185443 873.000000
42.204926 884.000000
42.224408 825.000000
42.243890 845.000000
42.263373 878.000000
42.282855 812.000000
42.302337 878.000000
42.321820 808.000000
42.341302 910.000000
42.360785 832.000000
42.380267 881.000000
42.399749 865.000000
42.419232 875.000000
42.438714 850.000000
42.458196 857.000000
42.477679 799.000000
42.497161 821.000000
42.516644 883.000000
42.536126 836.000000
42.555608 842.000000
42.575091 870.000000
42.594573 809.000000
42.614055 822.000000
42.633538 848.000000
42.653020 859.000000
42.672502 872.000000
42.691985 891.000000
42.711467 811.000000
42.730950 794.000000
42.750432 846.000000
42.769914 857.000000
42.789397 874.000000
42.808879 855.000000
42.828361 877.000000
42.847844 875.000000
42.867326 779.000000
42.886809 870.000000
42.906291 818.000000
42.925773 821.000000
42.945256 867.000000
42.964738 874.000000
42.984220 834.000000
43.003703 843.000000
43.023185 825.000000
43.042667 875.000000
43.062150 822.000000
43.081632 869.000000
43.101115 859.000000
43.120597 819.000000
43.140079 884.000000
43.159562 788.000000
43.179044 885.000000
43.198526 767.000000
43.218009 815.000000
43.237491 849.000000
43.256974 858.000000
43.276456 812.000000
43.295938 852.000000
43.315421 814.000000
43.334903 898.000000
43.354385 814.000000
43.373868 805.000000
43.393350 831.000000
43.412833 840.000000
43.432315 829.000000
43.451797 799.000000
43.471280 841.000000
43.490762 843.000000
43.510244 852.000000
43.529727 855.000000
43.549209 827.000000
43.568691 839.000000
43.588174 793.000000
43.607656 895.000000
43.627139 811.000000
43.646621 819.000000
43.666103 859.000000
43.685586 807.000000
43.705068 846.000000
43.724550 844.000000
43.744033 867.000000
43.763515 866.000000
43.782998 829.000000
43.802480 858.000000
43.821962 827.000000
43.841445 828.000000
43.860927 865.000000
43.880409 915.000000
43.899892 873.000000
43.919374 871.000000
43.938856 865.000000
43.958339 841.000000
43.977821 844.000000
43.997304 852.000000
44.016786 835.000000
44.036268 853.000000
44.055751 832.000000
44.075233 841.000000
44.094715 828.000000
44.114198 866.000000
44.133680 785.000000
44.153163 883.000000
44.172645 846.000000
44.192127 821.000000
44.211610 804.000000
44.231092 818.000000
44.250574 865.000000
44.270057 877.000000
44.289539 869.000000
44.309021 808.000000
44.328504 879.000000
44.347986 855.000000
44.367469 836.000000
44.386951 860.000000
44.406433 806.000000
44.425916 808.000000
44.445398 851.000000
44.464880 883.000000
44.484363 844.000000
44.503845 806.000000
44.523328 827.000000
44.542810 857.000000
44.562292 851.000000
44.581775 841.000000
44.601257 795.000000
44.620739 855.000000
44.640222 847.000000
44.659704 841.000000
44.679186 870.000000
44.698669 874.000000
44.718151 911.000000
44.737634 886.000000
44.757116 878.000000
44.776598 897.000000
44.796081 869.000000
44.815563 811.000000
44.835045 888.000000
44.854528 859.000000
44.874010 844.000000
44.893493 857.000000
44.912975 832.000000
44.932457 852.000000
44.951940 875.000000
44.971422 869.000000
44.990904 863.000000
45.010387 845.000000
45.029869 876.000000
45.049352 835.000000
45.068834 855.000000
45.088316 847.000000
45.107799 828.000000
45.127281 848.000000
45.146763 835.000000
45.166246 864.000000
45.185728 854.000000
45.205210 809.000000
45.224693 846.000000
45.244175 833.000000
45.263658 812.000000
45.283140 849.000000
45.302622 841.000000
45.322105 853.000000
45.341587 808.000000
45.361069 815.000000
45.380552 854.000000
45.400034 894.000000
45.419517 895.000000
45.438999 872.000000
45.458481 821.000000
45.477964 850.000000
45.497446 837.000000
45.516928 819.000000
45.536411 826.000000
45.555893 923.000000
45.575375 835.000000
45.594858 830.000000
45.614340 858.000000
45.633823 836.000000
45.653305 848.000000
45.672787 832.000000
45.692270 854.000000
45.711752 823.000000
45.731234 895.000000
45.750717 813.000000
45.770199 761.000000
45.789682 827.000000
45.809164 795.000000
45.828646 852.000000
45.848129 859.000000
45.867611 847.000000
45.887093 864.000000
45.906576 877.000000
45.926058 852.000000
45.945540 824.000000
45.965023 848.000000
45.984505 848.000000
46.003988 866.000000
46.023470 884.000000
46.042952 819.000000
46.062435 869.000000
46.081917 865.000000
46.101399 822.000000
46.120882 844.000000
46.140364 821.000000
46.159847 898.000000
46.179329 837.000000
46.198811 908.000000
46.218294 786.000000
46.237776 837.000000
46.257258 859.000000
46.276741 848.000000
46.296223 846.000000
46.315705 854.000000
46.335188 862.000000
46.354670 842.000000
46.374153 870.000000
46.393635 884.000000
46.413117 872.000000
46.432600 813.000000
46.452082 897.000000
46.471564 859.000000
46.491047 858.000000
46.510529 845.000000
46.530012 819.000000
46.549494 859.000000
46.568976 886.000000
46.588459 864.000000
46.607941 841.000000
46.627423 830.000000
46.646906 841.000000
46.666388 851.000000
46.685871 861.000000
46.705353 804.000000
46.724835 847.000000
46.744318 854.000000
46.763800 875.000000
46.783282 939.000000
46.802765 837.000000
46.822247 897.000000
46.841729 820.000000
46.861212 880.000000
46.880694 875.000000
46.900177 842.000000
46.919659 855.000000
46.939141 849.000000
46.958624 916.000000
46.978106 845.000000
46.997588 829.000000
47.017071 852.000000
47.036553 841.000000
47.056036 880.000000
47.075518 838.000000
47.095000 816.000000
47.114483 873.000000
47.133965 900.000000
47.153447 853.000000
47.172930 943.000000
47.192412 916.000000
47.211894 888.000000
47.231377 874.000000
47.250859 905.000000
47.270342 895.000000
47.289824 874.000000
47.309306 949.000000
47.328789 936.000000
47.348271 905.000000
47.367753 1067.000000
47.387236 1363.000000
47.406718 1809.000000
47.426201 2293.000000
47.445683 2180.000000
47.465165 1647.000000
47.484648 1224.000000
47.504130 1127.000000
47.523612 1303.000000
47.543095 1602.000000
47.562577 1596.000000
47.582059 1453.000000
47.601542 1082.000000
47.621024 968.000000
47.640507 944.000000
47.659989 869.000000
47.679471 861.000000
47.698954 893.000000
47.718436 888.000000
47.737918 847.000000
47.757401 876.000000
47.776883 850.000000
47.796366 840.000000
47.815848 886.000000
47.835330 876.000000
47.854813 843.000000
47.874295 874.000000
47.893777 891.000000
47.913260 882.000000
47.932742 862.000000
47.952224 869.000000
47.971707 849.000000
47.991189 798.000000
48.010672 843.000000
48.030154 855.000000
48.049636 864.000000
48.069119 845.000000
48.088601 897.000000
48.108083 821.000000
48.127566 823.000000
48.147048 830.000000
48.166531 908.000000
48.186013 858.000000
48.205495 921.000000
48.224978 870.000000
48.244460 858.000000
48.263942 848.000000
48.283425 812.000000
48.302907 844.000000
48.322389 829.000000
48.341872 862.000000
48.361354 846.000000
48.380837 916.000000
48.400319 845.000000
48.419801 850.000000
48.439284 872.000000
48.458766 888.000000
48.478248 867.000000
48.497731 870.000000
48.517213 842.000000
48.536696 902.000000
48.556178 836.000000
48.575660 810.000000
48.595143 903.000000
48.614625 847.000000
48.634107 930.000000
48.653590 864.000000
48.673072 842.000000
48.692555 876.000000
48.712037 849.000000
48.731519 877.000000
48.751002 857.000000
48.770484 862.000000
48.789966 858.000000
48.809449 849.000000
48.828931 889.000000
48.848413 917.000000
48.867896 856.000000
48.887378 879.000000
48.906861 834.000000
48.926343 916.000000
48.945825 840.000000
48.965308 877.000000
48.984790 872.000000
49.004272 888.000000
49.023755 934.000000
49.043237 895.000000
49.062720 865.000000
49.082202 928.000000
49.101684 882.000000
49.121167 880.000000
49.140649 884.000000
49.160131 881.000000
49.179614 858.000000
49.199096 933.000000
49.218578 879.000000
49.238061 863.000000
49.257543 877.000000
49.277026 857.000000
49.296508 902.000000
49.315990 892.000000
49.335473 903.000000
49.354955 851.000000
49.374437 857.000000
49.393920 838.000000
49.413402 850.000000
49.432885 901.000000
49.452367 883.000000
49.471849 885.000000
49.491332 854.000000
49.510814 866.000000
49.530296 856.000000
49.549779 874.000000
49.569261 861.000000
49.588743 900.000000
49.608226 871.000000
49.627708 849.000000
49.647191 848.000000
49.666673 899.000000
49.686155 887.000000
49.705638 901.000000
49.725120 875.000000
49.744602 902.000000
49.764085 862.000000
49.783567 864.000000
49.803050 829.000000
49.822532 868.000000
49.842014 871.000000
49.861497 875.000000
49.880979 871.000000
49.900461 862.000000
49.919944 897.000000
49.939426 821.000000
49.958908 830.000000
49.978391 949.000000
49.997873 895.000000
50.017356 793.000000
50.036838 886.000000
50.056320 824.000000
50.075803 831.000000
50.095285 909.000000
50.114767 905.000000
50.134250 886.000000
50.153732 922.000000
50.173215 842.000000
50.192697 826.000000
50.212179 862.000000
50.231662 863.000000
50.251144 829.000000
50.270626 873.000000
50.290109 874.000000
50.309591 896.000000
50.329074 866.000000
50.348556 925.000000
50.368038 963.000000
50.387521 876.000000
50.407003 902.000000
50.426485 901.000000
50.445968 842.000000
50.465450 866.000000
50.484932 824.000000
50.504415 929.000000
50.523897 888.000000
50.543380 890.000000
50.562862 876.000000
50.582344 938.000000
50.601827 858.000000
50.621309 923.000000
50.640791 894.000000
50.660274 818.000000
50.679756 912.000000
50.699239 881.000000
50.718721 888.000000
50.738203 881.000000
50.757686 806.000000
50.777168 861.000000
50.796650 896.000000
50.816133 831.000000
50.835615 893.000000
50.855097 863.000000
50.874580 871.000000
50.894062 910.000000
50.913545 860.000000
50.933027 844.000000
50.952509 864.000000
50.971992 858.000000
50.991474 855.000000
51.010956 892.000000
51.030439 883.000000
51.049921 839.000000
51.069404 843.000000
51.088886 916.000000
51.108368 829.000000
51.127851 875.000000
51.147333 876.000000
51.166815 826.000000
51.186298 878.000000
51.205780 850.000000
51.225262 875.000000
51.244745 889.000000
51.264227 868.000000
51.283710 827.000000
51.303192 877.000000
51.322674 831.000000
51.342157 946.000000
51.361639 876.000000
51.381121 916.000000
51.400604 903.000000
51.420086 910.000000
51.439569 898.000000
51.459051 840.000000
51.478533 877.000000
51.498016 886.000000
51.517498 884.000000
51.536980 860.000000
51.556463 874.000000
51.575945 830.000000
51.595427 907.000000
51.614910 897.000000
51.634392 841.000000
51.653875 850.000000
51.673357 841.000000
51.692839 891.000000
51.712322 887.000000
51.731804 862.000000
51.751286 882.000000
51.770769 854.000000
51.790251 868.000000
51.809734 818.000000
51.829216 866.000000
51.848698 919.000000
51.868181 902.000000
51.887663 943.000000
51.907145 879.000000
51.926628 859.000000
51.946110 908.000000
51.965593 926.000000
51.985075 846.000000
52.004557 860.000000
52.024040 825.000000
52.043522 860.000000
52.063004 859.000000
52.082487 848.000000
52.101969 868.000000
52.121451 898.000000
52.140934 909.000000
52.160416 905.000000
52.179899 886.000000
52.199381 879.000000
52.218863 896.000000
52.238346 855.000000
52.257828 925.000000
52.277310 841.000000
52.296793 884.000000
52.316275 839.000000
52.335758 910.000000
52.355240 880.000000
52.374722 909.000000
52.394205 902.000000
52.413687 885.000000
52.433169 908.000000
52.452652 882.000000
52.472134 950.000000
52.491616 850.000000
52.511099 892.000000
52.530581 878.000000
52.550064 868.000000
52.569546 849.000000
52.589028 879.000000
52.608511 861.000000
52.627993 911.000000
52.647475 937.000000
52.666958 887.000000
52.686440 822.000000
52.705923 918.000000
52.725405 915.000000
52.744887 937.000000
52.764370 918.000000
52.783852 852.000000
52.803334 921.000000
52.822817 835.000000
52.842299 868.000000
52.861781 918.000000
52.881264 900.000000
52.900746 841.000000
52.920229 895.000000
52.939711 900.000000
52.959193 876.000000
52.978676 883.000000
52.998158 884.000000
53.017640 864.000000
53.037123 892.000000
53.056605 877.000000
53.076088 878.000000
53.095570 940.000000
53.115052 889.000000
53.134535 860.000000
53.154017 948.000000
53.173499 910.000000
53.192982 841.000000
53.212464 895.000000
53.231946 921.000000
53.251429 903.000000
53.270911 899.000000
53.290394 927.000000
53.309876 883.000000
53.329358 858.000000
53.348841 870.000000
53.368323 888.000000
53.387805 880.000000
53.407288 905.000000
53.426770 861.000000
53.446253 883.000000
53.465735 888.000000
53.485217 866.000000
53.504700 904.000000
53.524182 814.000000
53.543664 929.000000
53.563147 891.000000
53.582629 878.000000
53.602112 873.000000
53.621594 881.000000
53.641076 893.000000
53.660559 874.000000
53.680041 830.000000
53.699523 926.000000
53.719006 883.000000
53.738488 889.000000
53.757970 903.000000
53.777453 862.000000
53.796935 902.000000
53.816418 881.000000
53.835900 871.000000
53.855382 853.000000
53.874865 934.000000
53.894347 894.000000
53.913829 901.000000
53.933312 886.000000
53.952794 899.000000
53.972277 872.000000
53.991759 853.000000
54.011241 797.000000
54.030724 905.000000
54.050206 866.000000
54.069688 911.000000
54.089171 898.000000
54.108653 805.000000
54.128135 843.000000
54.147618 886.000000
54.167100 902.000000
54.186583 919.000000
54.206065 917.000000
54.225547 907.000000
54.245030 919.000000
54.264512 848.000000
54.283994 871.000000
54.303477 894.000000
54.322959 845.000000
54.342442 860.000000
54.361924 851.000000
54.381406 898.000000
54.400889 846.000000
54.420371 843.000000
54.439853 825.000000
54.459336 875.000000
54.478818 888.000000
54.498300 825.000000
54.517783 849.000000
54.537265 832.000000
54.556748 892.000000
54.576230 889.000000
54.595712 894.000000
54.615195 906.000000
54.634677 875.000000
54.654159 878.000000
54.673642 890.000000
54.693124 878.000000
54.712607 860.000000
54.732089 916.000000
54.751571 865.000000
54.771054 890.000000
54.790536 891.000000
54.810018 868.000000
54.829501 894.000000
54.848983 869.000000
54.868465 853.000000
54.887948 878.000000
54.907430 835.000000
54.926913 877.000000
54.946395 920.000000
54.965877 874.000000
54.985360 928.000000
55.004842 878.000000
55.024324 900.000000
55.043807 908.000000
55.063289 876.000000
55.082772 859.000000
55.102254 837.000000
55.121736 883.000000
55.141219 868.000000
55.160701 915.000000
55.180183 915.000000
55.199666 900.000000
55.219148 875.000000
55.238630 914.000000
55.258113 871.000000
55.277595 873.000000
55.297078 886.000000
55.316560 893.000000
55.336042 867.000000
55.355525 909.000000
55.375007 903.000000
55.394489 906.000000
55.413972 895.000000
55.433454 882.000000
55.452937 921.000000
55.472419 938.000000
55.491901 851.000000
55.511384 896.000000
55.530866 846.000000
55.550348 917.000000
55.569831 887.000000
55.589313 869.000000
55.608796 914.000000
55.628278 877.000000
55.647760 886.000000
55.667243 917.000000
55.686725 888.000000
55.706207 920.000000
55.725690 897.000000
55.745172 960.000000
55.764654 899.000000
55.784137 856.000000
55.803619 898.000000
55.823102 871.000000
55.842584 933.000000
55.862066 937.000000
55.881549 893.000000
55.901031 857.000000
55.920513 892.000000
55.939996 947.000000
55.959478 953.000000
55.978961 943.000000
55.998443 987.000000
56.017925 987.000000
56.037408 998.000000
56.056890 921.000000
56.076372 942.000000
56.095855 994.000000
56.115337 921.000000
56.134819 1000.000000
56.154302 1082.000000
56.173784 1224.000000
56.193267 1391.000000
56.212749 1857.000000
56.232231 2728.000000
56.251714 3499.000000
56.271196 4252.000000
56.290678 3686.000000
56.310161 2240.000000
56.329643 1664.000000
56.349126 1462.000000
56.368608 1640.000000
56.388090 1940.000000
56.407573 2268.000000
56.427055 2557.000000
56.446537 2199.000000
56.466020 1499.000000
56.485502 1273.000000
56.504984 1126.000000
56.524467 975.000000
56.543949 1044.000000
56.563432 959.000000
56.582914 964.000000
56.602396 933.000000
56.621879 952.000000
56.641361 921.000000
56.660843 960.000000
56.680326 1006.000000
56.699808 930.000000
56.719291 900.000000
56.738773 859.000000
56.758255 923.000000
56.777738 883.000000
56.797220 948.000000
56.816702 850.000000
56.836185 881.000000
56.855667 883.000000
56.875149 939.000000
56.894632 903.000000
56.914114 913.000000
56.933597 941.000000
56.953079 881.000000
56.972561 919.000000
56.992044 845.000000
57.011526 892.000000
57.031008 886.000000
57.050491 912.000000
57.069973 923.000000
57.089456 933.000000
57.108938 886.000000
57.128420 969.000000
57.147903 882.000000
57.167385 912.000000
57.186867 940.000000
57.206350 894.000000
57.225832 877.000000
57.245315 871.000000
57.264797 856.000000
57.284279 882.000000
57.303762 874.000000
57.323244 893.000000
57.342726 926.000000
57.362209 921.000000
57.381691 958.000000
57.401173 891.000000
57.420656 887.000000
57.440138 915.000000
57.459621 956.000000
57.479103 923.000000
57.498585 910.000000
57.518068 872.000000
57.537550 933.000000
57.557032 841.000000
57.576515 886.000000
57.595997 887.000000
57.615480 986.000000
57.634962 868.000000
57.654444 893.000000
57.673927 922.000000
57.693409 863.000000
57.712891 912.000000
57.732374 885.000000
57.751856 889.000000
57.771338 925.000000
57.790821 908.000000
57.810303 907.000000
57.829786 917.000000
57.849268 911.000000
57.868750 916.000000
57.888233 908.000000
57.907715 935.000000
57.927197 897.000000
57.946680 880.000000
57.966162 883.000000
57.985645 910.000000
58.005127 898.000000
58.024609 939.000000
58.044092 882.000000
58.063574 811.000000
58.083056 885.000000
58.102539 921.000000
58.122021 923.000000
58.141503 888.000000
58.160986 905.000000
58.180468 907.000000
58.199951 902.000000
58.219433 860.000000
58.238915 893.000000
58.258398 860.000000
58.277880 907.000000
58.297362 928.000000
58.316845 882.000000
58.336327 924.000000
58.355810 929.000000
58.375292 914.000000
58.394774 891.000000
58.414257 918.000000
58.433739 908.000000
58.453221 897.000000
58.472704 894.000000
58.492186 843.000000
58.511668 936.000000
58.531151 908.000000
58.550633 925.000000
58.570116 956.000000
58.589598 872.000000
58.609080 912.000000
58.628563 867.000000
58.648045 904.000000
58.667527 917.000000
58.687010 873.000000
58.706492 870.000000
58.725975 831.000000
58.745457 939.000000
58.764939 959.000000
58.784422 905.000000
58.803904 974.000000
58.823386 955.000000
58.842869 930.000000
58.862351 972.000000
58.881834 1012.000000
58.901316 925.000000
58.920798 909.000000
58.940281 983.000000
58.959763 992.000000
58.979245 1099.000000
58.998728 1233.000000
59.018210 1380.000000
59.037692 1268.000000
59.057175 1066.000000
59.076657 940.000000
59.096140 972.000000
59.115622 976.000000
59.135104 980.000000
59.154587 992.000000
59.174069 1150.000000
59.193551 1076.000000
59.213034 979.000000
59.232516 961.000000
59.251999 886.000000
59.271481 919.000000
59.290963 967.000000
59.310446 912.000000
59.329928 905.000000
59.349410 891.000000
59.368893 935.000000
59.388375 918.000000
59.407857 918.000000
59.427340 899.000000
59.446822 931.000000
59.466305 894.000000
59.485787 928.000000
59.505269 913.000000
59.524752 861.000000
59.544234 905.000000
59.563716 903.000000
59.583199 893.000000
59.602681 908.000000
59.622164 939.000000
59.641646 933.000000
59.661128 944.000000
59.680611 913.000000
59.700093 911.000000
59.719575 905.000000
59.739058 915.000000
59.758540 893.000000
59.778022 871.000000
59.797505 875.000000
59.816987 931.000000
59.836470 937.000000
59.855952 950.000000
59.875434 903.000000
59.894917 929.000000
59.914399 844.000000
59.933881 911.000000
59.953364 892.000000
59.972846 953.000000
59.992329 939.000000
60.011811 902.000000
60.031293 950.000000
60.050776 884.000000
60.070258 907.000000
60.089740 924.000000
60.109223 877.000000
60.128705 896.000000
60.148187 918.000000
60.167670 884.000000
60.187152 908.000000
60.206635 918.000000
60.226117 923.000000
60.245599 917.000000
60.265082 901.000000
60.284564 912.000000
60.304046 914.000000
60.323529 884.000000
60.343011 928.000000
60.362494 891.000000
60.381976 908.000000
60.401458 929.000000
60.420941 943.000000
60.440423 869.000000
60.459905 863.000000
60.479388 919.000000
60.498870 855.000000
60.518352 876.000000
60.537835 935.000000
60.557317 858.000000
60.576800 878.000000
60.596282 850.000000
60.615764 890.000000
60.635247 924.000000
60.654729 914.000000
60.674211 886.000000
60.693694 883.000000
60.713176 923.000000
60.732659 898.000000
60.752141 959.000000
60.771623 917.000000
60.791106 922.000000
60.810588 940.000000
60.830070 931.000000
60.849553 924.000000
60.869035 924.000000
60.888518 843.000000
60.908000 874.000000
60.927482 863.000000
60.946965 930.000000
60.966447 905.000000
60.985929 895.000000
61.005412 890.000000
61.024894 918.000000
61.044376 962.000000
61.063859 929.000000
61.083341 858.000000
61.102824 946.000000
61.122306 966.000000
61.141788 869.000000
61.161271 933.000000
61.180753 905.000000
61.200235 920.000000
61.219718 893.000000
61.239200 886.000000
61.258683 919.000000
61.278165 856.000000
61.297647 909.000000
61.317130 953.000000
61.336612 906.000000
61.356094 961.000000
61.375577 930.000000
61.395059 987.000000
61.414541 968.000000
61.434024 887.000000
61.453506 964.000000
61.472989 907.000000
61.492471 959.000000
61.511953 940.000000
61.531436 925.000000
61.550918 904.000000
61.570400 980.000000
61.589883 954.000000
61.609365 1000.000000
61.628848 1106.000000
61.648330 1307.000000
61.667812 1596.000000
61.687295 1909.000000
61.706777 1681.000000
61.726259 1450.000000
61.745742 1207.000000
61.765224 1032.000000
61.784706 1010.000000
61.804189 1016.000000
61.823671 1146.000000
61.843154 1339.000000
61.862636 1370.000000
61.882118 1310.000000
61.901601 1166.000000
61.921083 1026.000000
61.940565 981.000000
61.960048 932.000000
61.979530 947.000000
61.999013 904.000000
62.018495 964.000000
62.037977 963.000000
62.057460 863.000000
62.076942 913.000000
62.096424 1006.000000
62.115907 912.000000
62.135389 985.000000
62.154871 912.000000
62.174354 910.000000
62.193836 890.000000
62.213319 964.000000
62.232801 928.000000
62.252283 892.000000
62.271766 963.000000
62.291248 946.000000
62.310730 880.000000
62.330213 922.000000
62.349695 925.000000
62.369178 896.000000
62.388660 914.000000
62.408142 904.000000
62.427625 972.000000
62.447107 901.000000
62.466589 914.000000
62.486072 966.000000
62.505554 945.000000
62.525037 918.000000
62.544519 976.000000
62.564001 956.000000
62.583484 945.000000
62.602966 926.000000
62.622448 928.000000
62.641931 912.000000
62.661413 912.000000
62.680895 888.000000
62.700378 944.000000
62.719860 888.000000
62.739343 946.000000
62.758825 953.000000
62.778307 934.000000
62.797790 989.000000
62.817272 958.000000
62.836754 922.000000
62.856237 926.000000
62.875719 948.000000
62.895202 891.000000
62.914684 906.000000
62.934166 877.000000
62.953649 903.000000
62.973131 936.000000
62.992613 940.000000
63.012096 903.000000
63.031578 972.000000
63.051060 949.000000
63.070543 869.000000
63.090025 955.000000
63.109508 852.000000
63.128990 877.000000
63.148472 927.000000
63.167955 898.000000
63.187437 889.000000
63.206919 983.000000
63.226402 877.000000
63.245884 900.000000
63.265367 952.000000
63.284849 943.000000
63.304331 882.000000
63.323814 916.000000
63.343296 917.000000
63.362778 907.000000
63.382261 934.000000
63.401743 981.000000
63.421225 894.000000
63.440708 915.000000
63.460190 926.000000
63.479673 902.000000
63.499155 887.000000
63.518637 904.000000
63.538120 949.000000
63.557602 885.000000
63.577084 968.000000
63.596567 891.000000
63.616049 854.000000
63.635532 861.000000
63.655014 872.000000
63.674496 910.000000
63.693979 904.000000
63.713461 887.000000
63.732943 914.000000
63.752426 916.000000
63.771908 981.000000
63.791390 938.000000
63.810873 879.000000
63.830355 958.000000
63.849838 913.000000
63.869320 883.000000
63.888802 984.000000
63.908285 910.000000
63.927767 956.000000
63.947249 935.000000
63.966732 931.000000
63.986214 955.000000
64.005697 981.000000
64.025179 881.000000
64.044661 878.000000
64.064144 940.000000
64.083626 962.000000
64.103108 901.000000
64.122591 956.000000
64.142073 928.000000
64.161556 993.000000
64.181038 1037.000000
64.200520 1080.000000
64.220003 1098.000000
64.239485 1175.000000
64.258967 1429.000000
64.278450 1723.000000
64.297932 1792.000000
64.317414 1472.000000
64.336897 1190.000000
64.356379 1063.000000
64.375862 1082.000000
64.395344 1049.000000
64.414826 1084.000000
64.434309 1239.000000
64.453791 1270.000000
64.473273 1378.000000
64.492756 1284.000000
64.512238 1107.000000
64.531721 994.000000
64.551203 983.000000
64.570685 995.000000
64.590168 980.000000
64.609650 992.000000
64.629132 968.000000
64.648615 987.000000
64.668097 941.000000
64.687579 925.000000
64.707062 936.000000
64.726544 933.000000
64.746027 912.000000
64.765509 940.000000
64.784991 955.000000
64.804474 900.000000
64.823956 891.000000
64.843438 899.000000
64.862921 917.000000
64.882403 918.000000
64.901886 930.000000
64.921368 903.000000
64.940850 924.000000
64.960333 978.000000
64.979815 879.000000
64.999297 957.000000
65.018780 947.000000
65.038262 950.000000
65.057744 907.000000
65.077227 963.000000
65.096709 923.000000
65.116192 999.000000
65.135674 923.000000
65.155156 1023.000000
65.174639 991.000000
65.194121 930.000000
65.213603 895.000000
65.233086 910.000000
65.252568 938.000000
65.272051 884.000000
65.291533 954.000000
65.311015 946.000000
65.330498 970.000000
65.349980 901.000000
65.369462 933.000000
65.388945 930.000000
65.408427 941.000000
65.427909 923.000000
65.447392 929.000000
65.466874 936.000000
65.486357 928.000000
65.505839 906.000000
65.525321 925.000000
65.544804 936.000000
65.564286 921.000000
65.583768 898.000000
65.603251 951.000000
65.622733 904.000000
65.642216 923.000000
65.661698 928.000000
65.681180 921.000000
65.700663 880.000000
65.720145 937.000000
65.739627 917.000000
65.759110 948.000000
65.778592 956.000000
65.798075 952.000000
65.817557 931.000000
65.837039 979.000000
65.856522 925.000000
65.876004 901.000000
65.895486 940.000000
65.914969 894.000000
65.934451 917.000000
65.953933 950.000000
65.973416 861.000000
65.992898 942.000000
66.012381 934.000000
66.031863 875.000000
66.051345 951.000000
66.070828 890.000000
66.090310 896.000000
66.109792 976.000000
66.129275 888.000000
66.148757 896.000000
66.168240 935.000000
66.187722 914.000000
66.207204 920.000000
66.226687 933.000000
66.246169 950.000000
66.265651 931.000000
66.285134 894.000000
66.304616 961.000000
66.324098 926.000000
66.343581 934.000000
66.363063 868.000000
66.382546 953.000000
66.402028 909.000000
66.421510 987.000000
66.440993 949.000000
66.460475 933.000000
66.479957 864.000000
66.499440 936.000000
66.518922 914.000000
66.538405 944.000000
66.557887 898.000000
66.577369 927.000000
66.596852 935.000000
66.616334 915.000000
66.635816 931.000000
66.655299 905.000000
66.674781 929.000000
66.694263 917.000000
66.713746 859.000000
66.733228 964.000000
66.752711 929.000000
66.772193 959.000000
66.791675 923.000000
66.811158 961.000000
66.830640 924.000000
66.850122 979.000000
66.869605 929.000000
66.889087 877.000000
66.908570 957.000000
66.928052 934.000000
66.947534 901.000000
66.967017 901.000000
66.986499 950.000000
67.005981 917.000000
67.025464 947.000000
67.044946 972.000000
67.064428 952.000000
67.083911 918.000000
67.103393 1012.000000
67.122876 886.000000
67.142358 977.000000
67.161840 948.000000
67.181323 985.000000
67.200805 975.000000
67.220287 921.000000
67.239770 986.000000
67.259252 932.000000
67.278735 920.000000
67.298217 948.000000
67.317699 916.000000
67.337182 962.000000
67.356664 909.000000
67.376146 1014.000000
67.395629 962.000000
67.415111 943.000000
67.434593 929.000000
67.454076 890.000000
67.473558 930.000000
67.493041 972.000000
67.512523 920.000000
67.532005 970.000000
67.551488 890.000000
67.570970 919.000000
67.590452 892.000000
67.609935 973.000000
67.629417 930.000000
67.648900 893.000000
67.668382 861.000000
67.687864 887.000000
67.707347 906.000000
67.726829 976.000000
67.746311 950.000000
67.765794 921.000000
67.785276 973.000000
67.804759 965.000000
67.824241 902.000000
67.843723 918.000000
67.863206 1015.000000
67.882688 956.000000
67.902170 955.000000
67.921653 941.000000
67.941135 976.000000
67.960617 890.000000
67.980100 934.000000
67.999582 947.000000
68.019065 950.000000
68.038547 952.000000
68.058029 915.000000
68.077512 916.000000
68.096994 926.000000
68.116476 938.000000
68.135959 927.000000
68.155441 906.000000
68.174924 956.000000
68.194406 908.000000
68.213888 987.000000
68.233371 979.000000
68.252853 937.000000
68.272335 909.000000
68.291818 922.000000
68.311300 991.000000
68.330782 933.000000
68.350265 944.000000
68.369747 923.000000
68.389230 890.000000
68.408712 939.000000
68.428194 895.000000
68.447677 882.000000
68.467159 943.000000
68.486641 955.000000
68.506124 959.000000
68.525606 911.000000
68.545089 964.000000
68.564571 930.000000
68.584053 877.000000
68.603536 918.000000
68.623018 927.000000
68.642500 936.000000
68.661983 951.000000
68.681465 948.000000
68.700947 1013.000000
68.720430 952.000000
68.739912 997.000000
68.759395 939.000000
68.778877 953.000000
68.798359 923.000000
68.817842 943.000000
68.837324 980.000000
68.856806 981.000000
68.876289 959.000000
68.895771 937.000000
68.915254 934.000000
68.934736 1006.000000
68.954218 971.000000
68.973701 906.000000
68.993183 938.000000
69.012665 867.000000
69.032148 942.000000
69.051630 885.000000
69.071112 942.000000
69.090595 904.000000
69.110077 938.000000
69.129560 951.000000
69.149042 937.000000
69.168524 960.000000
69.188007 905.000000
69.207489 981.000000
69.226971 918.000000
69.246454 935.000000
69.265936 908.000000
69.285419 903.000000
69.304901 929.000000
69.324383 998.000000
69.343866 967.000000
69.363348 966.000000
69.382830 942.000000
69.402313 932.000000
69.421795 958.000000
69.441278 984.000000
69.460760 931.000000
69.480242 942.000000
69.499725 958.000000
69.519207 939.000000
69.538689 1012.000000
69.558172 885.000000
69.577654 895.000000
69.597136 943.000000
69.616619 963.000000
69.636101 921.000000
69.655584 1039.000000
69.675066 967.000000
69.694548 906.000000
69.714031 924.000000
69.733513 940.000000
69.752995 926.000000
69.772478 903.000000
69.791960 963.000000
69.811443 940.000000
69.830925 950.000000
69.850407 909.000000
69.869890 892.000000
69.889372 921.000000
69.908854 981.000000
69.928337 974.000000
69.947819 935.000000
69.967301 915.000000
69.986784 930.000000
70.006266 915.000000
70.025749 953.000000
