4.000000 59.000000
4.019482 53.000000
4.038965 52.000000
4.058447 59.000000
4.077929 51.000000
4.097412 49.000000
4.116894 56.000000
4.136377 43.000000
4.155859 54.000000
4.175341 52.000000
4.194824 42.000000
4.214306 45.000000
4.233788 36.000000
4.253271 41.000000
4.272753 52.000000
4.292236 46.000000
4.311718 43.000000
4.331200 43.000000
4.350683 37.000000
4.370165 31.000000
4.389647 34.000000
4.409130 39.000000
4.428612 54.000000
4.448094 39.000000
4.467577 39.000000
4.487059 39.000000
4.506542 40.000000
4.526024 40.000000
4.545506 35.000000
4.564989 42.000000
4.584471 33.000000
4.603953 44.000000
4.623436 33.000000
4.642918 40.000000
4.662401 46.000000
4.681883 40.000000
4.701365 38.000000
4.720848 36.000000
4.740330 35.000000
4.759812 36.000000
4.779295 32.000000
4.798777 33.000000
4.818259 34.000000
4.837742 29.000000
4.857224 34.000000
4.876707 33.000000
4.896189 35.000000
4.915671 38.000000
4.935154 41.000000
4.954636 30.000000
4.974118 34.000000
4.993601 27.000000
5.013083 30.000000
5.032566 27.000000
5.052048 43.000000
5.071530 38.000000
5.091013 31.000000
5.110495 31.000000
5.129977 38.000000
5.149460 34.000000
5.168942 35.000000
5.188425 27.000000
5.207907 28.000000
5.227389 27.000000
5.246872 30.000000
5.266354 39.000000
5.285836 29.000000
5.305319 41.000000
5.324801 35.000000
5.344283 48.000000
5.363766 31.000000
5.383248 35.000000
5.402731 33.000000
5.422213 23.000000
5.441695 38.000000
5.461178 32.000000
5.480660 35.000000
5.500142 29.000000
5.519625 29.000000
5.539107 35.000000
5.558590 38.000000
5.578072 31.000000
5.597554 35.000000
5.617037 35.000000
5.636519 28.000000
5.656001 41.000000
5.675484 30.000000
5.694966 24.000000
5.714448 41.000000
5.733931 41.000000
5.753413 30.000000
5.772896 29.000000
5.792378 34.000000
5.811860 28.000000
5.831343 31.000000
5.850825 33.000000
5.870307 33.000000
5.889790 26.000000
5.909272 32.000000
5.928755 37.000000
5.948237 33.000000
5.967719 36.000000
5.987202 37.000000
6.006684 33.000000
6.026166 19.000000
6.045649 25.000000
6.065131 31.000000
6.084613 40.000000
6.104096 28.000000
6.123578 31.000000
6.143061 18.000000
6.162543 35.000000
6.182025 22.000000
6.201508 43.000000
6.220990 29.000000
6.240472 32.000000
6.259955 25.000000
6.279437 29.000000
6.298920 31.000000
6.318402 24.000000
6.337884 36.000000
6.357367 29.000000
6.376849 27.000000
6.396331 26.000000
6.415814 23.000000
6.435296 29.000000
6.454778 27.000000
6.474261 29.000000
6.493743 28.000000
6.513226 26.000000
6.532708 31.000000
6.552190 16.000000
6.571673 24.000000
6.591155 25.000000
6.610637 19.000000
6.630120 29.000000
6.649602 36.000000
6.669085 43.000000
6.688567 24.000000
6.708049 23.000000
6.727532 34.000000
6.747014 35.000000
6.766496 30.000000
6.785979 30.000000
6.805461 23.000000
6.824944 27.000000
6.844426 28.000000
6.863908 27.000000
6.883391 22.000000
6.902873 27.000000
6.922355 27.000000
6.941838 30.000000
6.961320 20.000000
6.980802 28.000000
7.000285 28.000000
7.019767 26.000000
7.039250 24.000000
7.058732 40.000000
7.078214 22.000000
7.097697 28.000000
7.117179 25.000000
7.136661 23.000000
7.156144 30.000000
7.175626 29.000000
7.195109 34.000000
7.214591 34.000000
7.234073 23.000000
7.253556 30.000000
7.273038 23.000000
7.292520 25.000000
7.312003 31.000000
7.331485 28.000000
7.350967 25.000000
7.370450 40.000000
7.389932 24.000000
7.409415 28.000000
7.428897 22.000000
7.448379 23.000000
7.467862 28.000000
7.487344 24.000000
7.506826 29.000000
7.526309 19.000000
7.545791 21.000000
7.565274 36.000000
7.584756 31.000000
7.604238 25.000000
7.623721 30.000000
7.643203 23.000000
7.662685 22.000000
7.682168 26.000000
7.701650 20.000000
7.721132 22.000000
7.740615 27.000000
7.760097 30.000000
7.779580 22.000000
7.799062 19.000000
7.818544 23.000000
7.838027 31.000000
7.857509 27.000000
7.876991 25.000000
7.896474 28.000000
7.915956 24.000000
7.935439 20.000000
7.954921 32.000000
7.974403 25.000000
7.993886 23.000000
8.013368 36.000000
8.032850 27.000000
8.052333 24.000000
8.071815 35.000000
8.091297 24.000000
8.110780 32.000000
8.130262 23.000000
8.149745 28.000000
8.169227 19.000000
8.188709 21.000000
8.208192 21.000000
8.227674 27.000000
8.247156 21.000000
8.266639 26.000000
8.286121 22.000000
8.305604 24.000000
8.325086 29.000000
8.344568 25.000000
8.364051 30.000000
8.383533 41.000000
8.403015 18.000000
8.422498 32.000000
8.441980 26.000000
8.461463 24.000000
8.480945 21.000000
8.500427 22.000000
8.519910 24.000000
8.539392 31.000000
8.558874 17.000000
8.578357 20.000000
8.597839 20.000000
8.617321 28.000000
8.636804 28.000000
8.656286 22.000000
8.675769 29.000000
8.695251 18.000000
8.714733 21.000000
8.734216 21.000000
8.753698 12.000000
8.773180 31.000000
8.792663 35.000000
8.812145 26.000000
8.831628 24.000000
8.851110 27.000000
8.870592 33.000000
8.890075 27.000000
8.909557 26.000000
8.929039 25.000000
8.948522 24.000000
8.968004 30.000000
8.987486 20.000000
9.006969 32.000000
9.026451 26.000000
9.045934 14.000000
9.065416 22.000000
9.084898 28.000000
9.104381 29.000000
9.123863 34.000000
9.143345 28.000000
9.162828 36.000000
9.182310 23.000000
9.201793 33.000000
9.221275 29.000000
9.240757 25.000000
9.260240 23.000000
9.279722 36.000000
9.299204 36.000000
9.318687 28.000000
9.338169 23.000000
9.357651 19.000000
9.377134 19.000000
9.396616 26.000000
9.416099 26.000000
9.435581 25.000000
9.455063 23.000000
9.474546 24.000000
9.494028 29.000000
9.513510 25.000000
9.532993 22.000000
9.552475 29.000000
9.571958 29.000000
9.591440 21.000000
9.610922 19.000000
9.630405 30.000000
9.649887 32.000000
9.669369 27.000000
9.688852 28.000000
9.708334 26.000000
9.727816 17.000000
9.747299 21.000000
9.766781 24.000000
9.786264 36.000000
9.805746 18.000000
9.825228 17.000000
9.844711 23.000000
9.864193 24.000000
9.883675 35.000000
9.903158 24.000000
9.922640 38.000000
9.942123 25.000000
9.961605 25.000000
9.981087 28.000000
10.000570 35.000000
10.020052 24.000000
10.039534 30.000000
10.059017 19.000000
10.078499 19.000000
10.097982 19.000000
10.117464 29.000000
10.136946 24.000000
10.156429 27.000000
10.175911 34.000000
10.195393 24.000000
10.214876 23.000000
10.234358 19.000000
10.253840 27.000000
10.273323 32.000000
10.292805 20.000000
10.312288 29.000000
10.331770 22.000000
10.351252 25.000000
10.370735 34.000000
10.390217 17.000000
10.409699 28.000000
10.429182 28.000000
10.448664 26.000000
10.468147 22.000000
10.487629 21.000000
10.507111 26.000000
10.526594 32.000000
10.546076 20.000000
10.565558 25.000000
10.585041 27.000000
10.604523 21.000000
10.624005 28.000000
10.643488 31.000000
10.662970 28.000000
10.682453 32.000000
10.701935 33.000000
10.721417 20.000000
10.740900 25.000000
10.760382 29.000000
10.779864 31.000000
10.799347 25.000000
10.818829 29.000000
10.838312 26.000000
10.857794 28.000000
10.877276 21.000000
10.896759 18.000000
10.916241 31.000000
10.935723 27.000000
10.955206 30.000000
10.974688 30.000000
10.994170 25.000000
11.013653 20.000000
11.033135 26.000000
11.052618 28.000000
11.072100 25.000000
11.091582 21.000000
11.111065 25.000000
11.130547 18.000000
11.150029 26.000000
11.169512 29.000000
11.188994 18.000000
11.208477 25.000000
11.227959 26.000000
11.247441 24.000000
11.266924 21.000000
11.286406 30.000000
11.305888 32.000000
11.325371 25.000000
11.344853 23.000000
11.364335 27.000000
11.383818 27.000000
11.403300 27.000000
11.422783 28.000000
11.442265 23.000000
11.461747 20.000000
11.481230 27.000000
11.500712 26.000000
11.520194 29.000000
11.539677 23.000000
11.559159 29.000000
11.578642 24.000000
11.598124 26.000000
11.617606 31.000000
11.637089 38.000000
11.656571 22.000000
11.676053 30.000000
11.695536 18.000000
11.715018 28.000000
11.734500 28.000000
11.753983 29.000000
11.773465 23.000000
11.792948 39.000000
11.812430 26.000000
11.831912 26.000000
11.851395 25.000000
11.870877 27.000000
11.890359 21.000000
11.909842 24.000000
11.929324 33.000000
11.948807 25.000000
11.968289 24.000000
11.987771 22.000000
12.007254 24.000000
12.026736 35.000000
12.046218 24.000000
12.065701 25.000000
12.085183 30.000000
12.104666 30.000000
12.124148 31.000000
12.143630 35.000000
12.163113 21.000000
12.182595 30.000000
12.202077 22.000000
12.221560 29.000000
12.241042 23.000000
12.260524 22.000000
12.280007 22.000000
12.299489 23.000000
12.318972 34.000000
12.338454 21.000000
12.357936 19.000000
12.377419 22.000000
12.396901 32.000000
12.416383 35.000000
12.435866 27.000000
12.455348 29.000000
12.474831 20.000000
12.494313 24.000000
12.513795 26.000000
12.533278 23.000000
12.552760 25.000000
12.572242 21.000000
12.591725 33.000000
12.611207 24.000000
12.630689 37.000000
12.650172 22.000000
12.669654 26.000000
12.689137 22.000000
12.708619 28.000000
12.728101 24.000000
12.747584 18.000000
12.767066 23.000000
12.786548 19.000000
12.806031 28.000000
12.825513 31.000000
12.844996 22.000000
12.864478 16.000000
12.883960 35.000000
12.903443 33.000000
12.922925 27.000000
12.942407 32.000000
12.961890 33.000000
12.981372 23.000000
13.000854 24.000000
13.020337 22.000000
13.039819 20.000000
13.059302 31.000000
13.078784 32.000000
13.098266 30.000000
13.117749 28.000000
13.137231 31.000000
13.156713 32.000000
13.176196 20.000000
13.195678 28.000000
13.215161 28.000000
13.234643 24.000000
13.254125 20.000000
13.273608 23.000000
13.293090 23.000000
13.312572 27.000000
13.332055 33.000000
13.351537 21.000000
13.371019 30.000000
13.390502 31.000000
13.409984 23.000000
13.429467 29.000000
13.448949 36.000000
13.468431 22.000000
13.487914 17.000000
13.507396 24.000000
13.526878 28.000000
13.546361 25.000000
13.565843 26.000000
13.585326 23.000000
13.604808 31.000000
13.624290 20.000000
13.643773 26.000000
13.663255 30.000000
13.682737 36.000000
13.702220 25.000000
13.721702 22.000000
13.741185 37.000000
13.760667 24.000000
13.780149 24.000000
13.799632 24.000000
13.819114 29.000000
13.838596 29.000000
13.858079 39.000000
13.877561 28.000000
13.897043 18.000000
13.916526 26.000000
13.936008 27.000000
13.955491 24.000000
13.974973 24.000000
13.994455 28.000000
14.013938 25.000000
14.033420 23.000000
14.052902 19.000000
14.072385 28.000000
14.091867 32.000000
14.111350 30.000000
14.130832 11.000000
14.150314 20.000000
14.169797 33.000000
14.189279 19.000000
14.208761 26.000000
14.228244 23.000000
14.247726 25.000000
14.267208 31.000000
14.286691 16.000000
14.306173 24.000000
14.325656 19.000000
14.345138 24.000000
14.364620 26.000000
14.384103 14.000000
14.403585 28.000000
14.423067 20.000000
14.442550 28.000000
14.462032 26.000000
14.481515 20.000000
14.500997 32.000000
14.520479 18.000000
14.539962 16.000000
14.559444 15.000000
14.578926 21.000000
14.598409 25.000000
14.617891 37.000000
14.637373 21.000000
14.656856 30.000000
14.676338 26.000000
14.695821 27.000000
14.715303 27.000000
14.734785 20.000000
14.754268 20.000000
14.773750 24.000000
14.793232 33.000000
14.812715 25.000000
14.832197 21.000000
14.851680 22.000000
14.871162 23.000000
14.890644 29.000000
14.910127 31.000000
14.929609 25.000000
14.949091 31.000000
14.968574 25.000000
14.988056 23.000000
15.007538 17.000000
15.027021 29.000000
15.046503 24.000000
15.065986 17.000000
15.085468 29.000000
15.104950 21.000000
15.124433 26.000000
15.143915 22.000000
15.163397 26.000000
15.182880 17.000000
15.202362 24.000000
15.221845 34.000000
15.241327 18.000000
15.260809 33.000000
15.280292 19.000000
15.299774 34.000000
15.319256 26.000000
15.338739 29.000000
15.358221 30.000000
15.377704 21.000000
15.397186 18.000000
15.416668 27.000000
15.436151 25.000000
15.455633 23.000000
15.475115 25.000000
15.494598 17.000000
15.514080 29.000000
15.533562 27.000000
15.553045 17.000000
15.572527 25.000000
15.592010 31.000000
15.611492 31.000000
15.630974 23.000000
15.650457 23.000000
15.669939 24.000000
15.689421 26.000000
15.708904 19.000000
15.728386 24.000000
15.747869 25.000000
15.767351 29.000000
15.786833 32.000000
15.806316 33.000000
15.825798 34.000000
15.845280 28.000000
15.864763 21.000000
15.884245 29.000000
15.903727 22.000000
15.923210 21.000000
15.942692 23.000000
15.962175 27.000000
15.981657 24.000000
16.001139 27.000000
16.020622 22.000000
16.040104 20.000000
16.059586 29.000000
16.079069 21.000000
16.098551 26.000000
16.118034 17.000000
16.137516 28.000000
16.156998 24.000000
16.176481 22.000000
16.195963 24.000000
16.215445 20.000000
16.234928 25.000000
16.254410 26.000000
16.273892 23.000000
16.293375 27.000000
16.312857 29.000000
16.332340 22.000000
16.351822 29.000000
16.371304 32.000000
16.390787 20.000000
16.410269 19.000000
16.429751 27.000000
16.449234 15.000000
16.468716 29.000000
16.488199 35.000000
16.507681 35.000000
16.527163 33.000000
16.546646 20.000000
16.566128 22.000000
16.585610 18.000000
16.605093 24.000000
16.624575 29.000000
16.644057 37.000000
16.663540 25.000000
16.683022 17.000000
16.702505 13.000000
16.721987 25.000000
16.741469 21.000000
16.760952 19.000000
16.780434 20.000000
16.799916 23.000000
16.819399 32.000000
16.838881 27.000000
16.858364 19.000000
16.877846 25.000000
16.897328 19.000000
16.916811 33.000000
16.936293 23.000000
16.955775 24.000000
16.975258 23.000000
16.994740 37.000000
17.014222 26.000000
17.033705 20.000000
17.053187 23.000000
17.072670 21.000000
17.092152 27.000000
17.111634 30.000000
17.131117 28.000000
17.150599 15.000000
17.170081 27.000000
17.189564 24.000000
17.209046 23.000000
17.228529 21.000000
17.248011 23.000000
17.267493 19.000000
17.286976 14.000000
17.306458 22.000000
17.325940 27.000000
17.345423 27.000000
17.364905 26.000000
17.384388 26.000000
17.403870 28.000000
17.423352 28.000000
17.442835 23.000000
17.462317 27.000000
17.481799 30.000000
17.501282 22.000000
17.520764 20.000000
17.540246 25.000000
17.559729 31.000000
17.579211 25.000000
17.598694 22.000000
17.618176 25.000000
17.637658 31.000000
17.657141 35.000000
17.676623 29.000000
17.696105 23.000000
17.715588 20.000000
17.735070 27.000000
17.754553 21.000000
17.774035 30.000000
17.793517 24.000000
17.813000 29.000000
17.832482 32.000000
17.851964 28.000000
17.871447 23.000000
17.890929 18.000000
17.910411 20.000000
17.929894 31.000000
17.949376 28.000000
17.968859 28.000000
17.988341 26.000000
18.007823 29.000000
18.027306 18.000000
18.046788 31.000000
18.066270 27.000000
18.085753 26.000000
18.105235 29.000000
18.124718 12.000000
18.144200 30.000000
18.163682 21.000000
18.183165 22.000000
18.202647 35.000000
18.222129 25.000000
18.241612 21.000000
18.261094 23.000000
18.280576 27.000000
18.300059 21.000000
18.319541 36.000000
18.339024 32.000000
18.358506 22.000000
18.377988 20.000000
18.397471 16.000000
18.416953 23.000000
18.436435 20.000000
18.455918 33.000000
18.475400 19.000000
18.494883 21.000000
18.514365 31.000000
18.533847 22.000000
18.553330 31.000000
18.572812 26.000000
18.592294 25.000000
18.611777 19.000000
18.631259 19.000000
18.650741 29.000000
18.670224 22.000000
18.689706 37.000000
18.709189 29.000000
18.728671 27.000000
18.748153 27.000000
18.767636 24.000000
18.787118 31.000000
18.806600 23.000000
18.826083 27.000000
18.845565 22.000000
18.865048 30.000000
18.884530 22.000000
18.904012 24.000000
18.923495 35.000000
18.942977 32.000000
18.962459 25.000000
18.981942 29.000000
19.001424 20.000000
19.020907 23.000000
19.040389 38.000000
19.059871 20.000000
19.079354 25.000000
19.098836 26.000000
19.118318 27.000000
19.137801 23.000000
19.157283 35.000000
19.176765 25.000000
19.196248 20.000000
19.215730 26.000000
19.235213 26.000000
19.254695 25.000000
19.274177 22.000000
19.293660 36.000000
19.313142 23.000000
19.332624 23.000000
19.352107 24.000000
19.371589 30.000000
19.391072 23.000000
19.410554 25.000000
19.430036 18.000000
19.449519 31.000000
19.469001 26.000000
19.488483 33.000000
19.507966 24.000000
19.527448 36.000000
19.546930 33.000000
19.566413 23.000000
19.585895 35.000000
19.605378 15.000000
19.624860 22.000000
19.644342 20.000000
19.663825 24.000000
19.683307 21.000000
19.702789 26.000000
19.722272 20.000000
19.741754 28.000000
19.761237 26.000000
19.780719 34.000000
19.800201 26.000000
19.819684 21.000000
19.839166 22.000000
19.858648 30.000000
19.878131 26.000000
19.897613 21.000000
19.917095 23.000000
19.936578 20.000000
19.956060 16.000000
19.975543 27.000000
19.995025 17.000000
20.014507 29.000000
20.033990 22.000000
20.053472 23.000000
20.072954 17.000000
20.092437 25.000000
20.111919 23.000000
20.131402 32.000000
20.150884 28.000000
20.170366 21.000000
20.189849 29.000000
20.209331 24.000000
20.228813 25.000000
20.248296 25.000000
20.267778 14.000000
20.287260 26.000000
20.306743 26.000000
20.326225 33.000000
20.345708 27.000000
20.365190 19.000000
20.384672 19.000000
20.404155 20.000000
20.423637 18.000000
20.443119 19.000000
20.462602 24.000000
20.482084 28.000000
20.501567 20.000000
20.521049 26.000000
20.540531 21.000000
20.560014 25.000000
20.579496 26.000000
20.598978 22.000000
20.618461 21.000000
20.637943 36.000000
20.657426 19.000000
20.676908 25.000000
20.696390 19.000000
20.715873 20.000000
20.735355 27.000000
20.754837 33.000000
20.774320 23.000000
20.793802 24.000000
20.813284 23.000000
20.832767 29.000000
20.852249 22.000000
20.871732 28.000000
20.891214 18.000000
20.910696 28.000000
20.930179 28.000000
20.949661 22.000000
20.969143 32.000000
20.988626 27.000000
21.008108 31.000000
21.027591 24.000000
21.047073 12.000000
21.066555 25.000000
21.086038 18.000000
21.105520 26.000000
21.125002 31.000000
21.144485 22.000000
21.163967 25.000000
21.183449 23.000000
21.202932 34.000000
21.222414 22.000000
21.241897 21.000000
21.261379 28.000000
21.280861 23.000000
21.300344 39.000000
21.319826 34.000000
21.339308 19.000000
21.358791 22.000000
21.378273 24.000000
21.397756 22.000000
21.417238 20.000000
21.436720 33.000000
21.456203 26.000000
21.475685 19.000000
21.495167 25.000000
21.514650 24.000000
21.534132 23.000000
21.553614 32.000000
21.573097 20.000000
21.592579 24.000000
21.612062 26.000000
21.631544 22.000000
21.651026 18.000000
21.670509 27.000000
21.689991 24.000000
21.709473 32.000000
21.728956 33.000000
21.748438 14.000000
21.767921 24.000000
21.787403 27.000000
21.806885 22.000000
21.826368 22.000000
21.845850 27.000000
21.865332 19.000000
21.884815 26.000000
21.904297 27.000000
21.923779 24.000000
21.943262 30.000000
21.962744 19.000000
21.982227 27.000000
22.001709 28.000000
22.021191 24.000000
22.040674 20.000000
22.060156 24.000000
22.079638 28.000000
22.099121 35.000000
22.118603 21.000000
22.138086 27.000000
22.157568 19.000000
22.177050 31.000000
22.196533 25.000000
22.216015 18.000000
22.235497 25.000000
22.254980 21.000000
22.274462 21.000000
22.293945 23.000000
22.313427 29.000000
22.332909 23.000000
22.352392 22.000000
22.371874 22.000000
22.391356 26.000000
22.410839 26.000000
22.430321 28.000000
22.449803 31.000000
22.469286 25.000000
22.488768 27.000000
22.508251 29.000000
22.527733 29.000000
22.547215 24.000000
22.566698 26.000000
22.586180 23.000000
22.605662 33.000000
22.625145 22.000000
22.644627 26.000000
22.664110 29.000000
22.683592 20.000000
22.703074 30.000000
22.722557 25.000000
22.742039 28.000000
22.761521 33.000000
22.781004 26.000000
22.800486 33.000000
22.819968 29.000000
22.839451 28.000000
22.858933 23.000000
22.878416 27.000000
22.897898 24.000000
22.917380 17.000000
22.936863 21.000000
22.956345 14.000000
22.975827 21.000000
22.995310 24.000000
23.014792 21.000000
23.034275 22.000000
23.053757 33.000000
23.073239 20.000000
23.092722 30.000000
23.112204 25.000000
23.131686 24.000000
23.151169 14.000000
23.170651 20.000000
23.190133 22.000000
23.209616 19.000000
23.229098 24.000000
23.248581 27.000000
23.268063 25.000000
23.287545 24.000000
23.307028 26.000000
23.326510 19.000000
23.345992 29.000000
23.365475 25.000000
23.384957 26.000000
23.404440 20.000000
23.423922 21.000000
23.443404 29.000000
23.462887 27.000000
23.482369 28.000000
23.501851 37.000000
23.521334 29.000000
23.540816 27.000000
23.560298 25.000000
23.579781 22.000000
23.599263 27.000000
23.618746 39.000000
23.638228 21.000000
23.657710 26.000000
23.677193 24.000000
23.696675 31.000000
23.716157 24.000000
23.735640 24.000000
23.755122 23.000000
23.774605 28.000000
23.794087 27.000000
23.813569 22.000000
23.833052 26.000000
23.852534 20.000000
23.872016 19.000000
23.891499 25.000000
23.910981 21.000000
23.930463 19.000000
23.949946 23.000000
23.969428 23.000000
23.988911 28.000000
24.008393 24.000000
24.027875 31.000000
24.047358 20.000000
24.066840 32.000000
24.086322 27.000000
24.105805 26.000000
24.125287 22.000000
24.144770 34.000000
24.164252 29.000000
24.183734 23.000000
24.203217 28.000000
24.222699 23.000000
24.242181 23.000000
24.261664 21.000000
24.281146 29.000000
24.300629 18.000000
24.320111 22.000000
24.339593 26.000000
24.359076 29.000000
24.378558 38.000000
24.398040 33.000000
24.417523 20.000000
24.437005 18.000000
24.456487 29.000000
24.475970 31.000000
24.495452 25.000000
24.514935 26.000000
24.534417 27.000000
24.553899 30.000000
24.573382 31.000000
24.592864 26.000000
24.612346 22.000000
24.631829 28.000000
24.651311 22.000000
24.670794 22.000000
24.690276 21.000000
24.709758 29.000000
24.729241 28.000000
24.748723 35.000000
24.768205 21.000000
24.787688 30.000000
24.807170 26.000000
24.826652 22.000000
24.846135 19.000000
24.865617 26.000000
24.885100 24.000000
24.904582 20.000000
24.924064 31.000000
24.943547 29.000000
24.963029 27.000000
24.982511 23.000000
25.001994 34.000000
25.021476 26.000000
25.040959 26.000000
25.060441 30.000000
25.079923 25.000000
25.099406 27.000000
25.118888 26.000000
25.138370 26.000000
25.157853 23.000000
25.177335 24.000000
25.196817 27.000000
25.216300 24.000000
25.235782 16.000000
25.255265 23.000000
25.274747 30.000000
25.294229 24.000000
25.313712 35.000000
25.333194 32.000000
25.352676 16.000000
25.372159 22.000000
25.391641 27.000000
25.411124 26.000000
25.430606 29.000000
25.450088 23.000000
25.469571 32.000000
25.489053 26.000000
25.508535 21.000000
25.528018 22.000000
25.547500 23.000000
25.566982 30.000000
25.586465 21.000000
25.605947 23.000000
25.625430 24.000000
25.644912 24.000000
25.664394 32.000000
25.683877 19.000000
25.703359 27.000000
25.722841 29.000000
25.742324 31.000000
25.761806 17.000000
25.781289 20.000000
25.800771 33.000000
25.820253 26.000000
25.839736 18.000000
25.859218 27.000000
25.878700 23.000000
25.898183 24.000000
25.917665 25.000000
25.937148 21.000000
25.956630 30.000000
25.976112 22.000000
25.995595 27.000000
26.015077 27.000000
26.034559 23.000000
26.054042 30.000000
26.073524 25.000000
26.093006 31.000000
26.112489 38.000000
26.131971 32.000000
26.151454 28.000000
26.170936 38.000000
26.190418 23.000000
26.209901 32.000000
26.229383 23.000000
26.248865 27.000000
26.268348 20.000000
26.287830 25.000000
26.307313 21.000000
26.326795 32.000000
26.346277 22.000000
26.365760 26.000000
26.385242 22.000000
26.404724 26.000000
26.424207 28.000000
26.443689 22.000000
26.463171 24.000000
26.482654 23.000000
26.502136 24.000000
26.521619 33.000000
26.541101 23.000000
26.560583 27.000000
26.580066 25.000000
26.599548 26.000000
26.619030 26.000000
26.638513 20.000000
26.657995 33.000000
26.677478 25.000000
26.696960 27.000000
26.716442 30.000000
26.735925 28.000000
26.755407 31.000000
26.774889 32.000000
26.794372 34.000000
26.813854 27.000000
26.833336 21.000000
26.852819 26.000000
26.872301 18.000000
26.891784 30.000000
26.911266 23.000000
26.930748 29.000000
26.950231 33.000000
26.969713 28.000000
26.989195 25.000000
27.008678 25.000000
27.028160 29.000000
27.047643 30.000000
27.067125 23.000000
27.086607 32.000000
27.106090 25.000000
27.125572 19.000000
27.145054 35.000000
27.164537 25.000000
27.184019 26.000000
27.203501 24.000000
27.222984 26.000000
27.242466 28.000000
27.261949 32.000000
27.281431 23.000000
27.300913 27.000000
27.320396 26.000000
27.339878 20.000000
27.359360 20.000000
27.378843 16.000000
27.398325 29.000000
27.417808 33.000000
27.437290 22.000000
27.456772 21.000000
27.476255 34.000000
27.495737 35.000000
27.515219 20.000000
27.534702 21.000000
27.554184 24.000000
27.573667 29.000000
27.593149 24.000000
27.612631 30.000000
27.632114 30.000000
27.651596 37.000000
27.671078 41.000000
27.690561 25.000000
27.710043 31.000000
27.729525 21.000000
27.749008 27.000000
27.768490 27.000000
27.787973 27.000000
27.807455 12.000000
27.826937 24.000000
27.846420 27.000000
27.865902 31.000000
27.885384 25.000000
27.904867 28.000000
27.924349 28.000000
27.943832 22.000000
27.963314 25.000000
27.982796 23.000000
28.002279 25.000000
28.021761 27.000000
28.041243 23.000000
28.060726 33.000000
28.080208 33.000000
28.099690 42.000000
28.119173 28.000000
28.138655 29.000000
28.158138 26.000000
28.177620 34.000000
28.197102 21.000000
28.216585 25.000000
28.236067 27.000000
28.255549 26.000000
28.275032 24.000000
28.294514 20.000000
28.313997 29.000000
28.333479 24.000000
28.352961 33.000000
28.372444 27.000000
28.391926 29.000000
28.411408 28.000000
28.430891 28.000000
28.450373 33.000000
28.469855 40.000000
28.489338 66.000000
28.508820 63.000000
28.528303 58.000000
28.547785 62.000000
28.567267 44.000000
28.586750 44.000000
28.606232 43.000000
28.625714 28.000000
28.645197 17.000000
28.664679 21.000000
28.684162 30.000000
28.703644 27.000000
28.723126 29.000000
28.742609 37.000000
28.762091 26.000000
28.781573 27.000000
28.801056 27.000000
28.820538 27.000000
28.840020 34.000000
28.859503 26.000000
28.878985 24.000000
28.898468 24.000000
28.917950 22.000000
28.937432 29.000000
28.956915 27.000000
28.976397 21.000000
28.995879 25.000000
29.015362 23.000000
29.034844 36.000000
29.054327 31.000000
29.073809 21.000000
29.093291 33.000000
29.112774 25.000000
29.132256 28.000000
29.151738 29.000000
29.171221 26.000000
29.190703 29.000000
29.210185 27.000000
29.229668 25.000000
29.249150 29.000000
29.268633 23.000000
29.288115 34.000000
29.307597 31.000000
29.327080 22.000000
29.346562 23.000000
29.366044 23.000000
29.385527 24.000000
29.405009 30.000000
29.424492 20.000000
29.443974 32.000000
29.463456 23.000000
29.482939 17.000000
29.502421 25.000000
29.521903 34.000000
29.541386 33.000000
29.560868 30.000000
29.580351 19.000000
29.599833 27.000000
29.619315 28.000000
29.638798 23.000000
29.658280 20.000000
29.677762 16.000000
29.697245 29.000000
29.716727 22.000000
29.736209 24.000000
29.755692 25.000000
29.775174 31.000000
29.794657 22.000000
29.814139 29.000000
29.833621 20.000000
29.853104 24.000000
29.872586 37.000000
29.892068 27.000000
29.911551 20.000000
29.931033 26.000000
29.950516 35.000000
29.969998 20.000000
29.989480 35.000000
30.008963 34.000000
30.028445 32.000000
30.047927 26.000000
30.067410 25.000000
30.086892 29.000000
30.106374 26.000000
30.125857 36.000000
30.145339 15.000000
30.164822 27.000000
30.184304 20.000000
30.203786 18.000000
30.223269 22.000000
30.242751 31.000000
30.262233 39.000000
30.281716 29.000000
30.301198 25.000000
30.320681 30.000000
30.340163 24.000000
30.359645 24.000000
30.379128 24.000000
30.398610 28.000000
30.418092 24.000000
30.437575 22.000000
30.457057 26.000000
30.476539 23.000000
30.496022 34.000000
30.515504 30.000000
30.534987 22.000000
30.554469 31.000000
30.573951 39.000000
30.593434 26.000000
30.612916 32.000000
30.632398 13.000000
30.651881 27.000000
30.671363 18.000000
30.690846 21.000000
30.710328 25.000000
30.729810 30.000000
30.749293 25.000000
30.768775 27.000000
30.788257 31.000000
30.807740 24.000000
30.827222 22.000000
30.846704 30.000000
30.866187 30.000000
30.885669 36.000000
30.905152 26.000000
30.924634 27.000000
30.944116 25.000000
30.963599 21.000000
30.983081 27.000000
31.002563 30.000000
31.022046 16.000000
31.041528 29.000000
31.061011 33.000000
31.080493 32.000000
31.099975 20.000000
31.119458 21.000000
31.138940 25.000000
31.158422 27.000000
31.177905 22.000000
31.197387 19.000000
31.216870 27.000000
31.236352 19.000000
31.255834 29.000000
31.275317 28.000000
31.294799 27.000000
31.314281 13.000000
31.333764 26.000000
31.353246 26.000000
31.372728 28.000000
31.392211 37.000000
31.411693 27.000000
31.431176 26.000000
31.450658 22.000000
31.470140 21.000000
31.489623 29.000000
31.509105 21.000000
31.528587 28.000000
31.548070 28.000000
31.567552 20.000000
31.587035 21.000000
31.606517 44.000000
31.625999 30.000000
31.645482 28.000000
31.664964 24.000000
31.684446 22.000000
31.703929 25.000000
31.723411 21.000000
31.742893 31.000000
31.762376 24.000000
31.781858 25.000000
31.801341 28.000000
31.820823 26.000000
31.840305 26.000000
31.859788 30.000000
31.879270 22.000000
31.898752 25.000000
31.918235 25.000000
31.937717 32.000000
31.957200 28.000000
31.976682 25.000000
31.996164 24.000000
32.015647 21.000000
32.035129 16.000000
32.054611 17.000000
32.074094 13.000000
32.093576 25.000000
32.113058 28.000000
32.132541 24.000000
32.152023 25.000000
32.171506 24.000000
32.190988 23.000000
32.210470 31.000000
32.229953 26.000000
32.249435 29.000000
32.268917 25.000000
32.288400 22.000000
32.307882 25.000000
32.327365 26.000000
32.346847 32.000000
32.366329 21.000000
32.385812 23.000000
32.405294 35.000000
32.424776 34.000000
32.444259 28.000000
32.463741 20.000000
32.483223 30.000000
32.502706 25.000000
32.522188 29.000000
32.541671 27.000000
32.561153 30.000000
32.580635 28.000000
32.600118 27.000000
32.619600 27.000000
32.639082 30.000000
32.658565 28.000000
32.678047 19.000000
32.697530 32.000000
32.717012 22.000000
32.736494 22.000000
32.755977 21.000000
32.775459 27.000000
32.794941 32.000000
32.814424 25.000000
32.833906 30.000000
32.853389 36.000000
32.872871 40.000000
32.892353 21.000000
32.911836 27.000000
32.931318 36.000000
32.950800 30.000000
32.970283 39.000000
32.989765 50.000000
33.009247 92.000000
33.028730 145.000000
33.048212 115.000000
33.067695 89.000000
33.087177 61.000000
33.106659 81.000000
33.126142 88.000000
33.145624 49.000000
33.165106 30.000000
33.184589 31.000000
33.204071 26.000000
33.223554 21.000000
33.243036 29.000000
33.262518 29.000000
33.282001 22.000000
33.301483 28.000000
33.320965 25.000000
33.340448 21.000000
33.359930 21.000000
33.379412 22.000000
33.398895 23.000000
33.418377 24.000000
33.437860 34.000000
33.457342 24.000000
33.476824 32.000000
33.496307 27.000000
33.515789 27.000000
33.535271 24.000000
33.554754 27.000000
33.574236 33.000000
33.593719 25.000000
33.613201 32.000000
33.632683 30.000000
33.652166 27.000000
33.671648 18.000000
33.691130 22.000000
33.710613 25.000000
33.730095 26.000000
33.749577 21.000000
33.769060 20.000000
33.788542 29.000000
33.808025 24.000000
33.827507 22.000000
33.846989 19.000000
33.866472 25.000000
33.885954 22.000000
33.905436 24.000000
33.924919 31.000000
33.944401 30.000000
33.963884 33.000000
33.983366 16.000000
34.002848 22.000000
34.022331 28.000000
34.041813 21.000000
34.061295 21.000000
34.080778 24.000000
34.100260 20.000000
34.119742 22.000000
34.139225 23.000000
34.158707 28.000000
34.178190 30.000000
34.197672 20.000000
34.217154 21.000000
34.236637 26.000000
34.256119 21.000000
34.275601 32.000000
34.295084 36.000000
34.314566 28.000000
34.334049 26.000000
34.353531 35.000000
34.373013 27.000000
34.392496 33.000000
34.411978 25.000000
34.431460 21.000000
34.450943 29.000000
34.470425 29.000000
34.489908 32.000000
34.509390 26.000000
34.528872 29.000000
34.548355 26.000000
34.567837 24.000000
34.587319 25.000000
34.606802 25.000000
34.626284 29.000000
34.645766 24.000000
34.665249 30.000000
34.684731 26.000000
34.704214 34.000000
34.723696 22.000000
34.743178 28.000000
34.762661 22.000000
34.782143 24.000000
34.801625 29.000000
34.821108 25.000000
34.840590 15.000000
34.860073 19.000000
34.879555 28.000000
34.899037 26.000000
34.918520 27.000000
34.938002 22.000000
34.957484 29.000000
34.976967 26.000000
34.996449 27.000000
35.015931 24.000000
35.035414 21.000000
35.054896 27.000000
35.074379 32.000000
35.093861 24.000000
35.113343 34.000000
35.132826 24.000000
35.152308 41.000000
35.171790 26.000000
35.191273 33.000000
35.210755 18.000000
35.230238 27.000000
35.249720 28.000000
35.269202 27.000000
35.288685 28.000000
35.308167 23.000000
35.327649 24.000000
35.347132 28.000000
35.366614 15.000000
35.386096 25.000000
35.405579 33.000000
35.425061 26.000000
35.444544 27.000000
35.464026 26.000000
35.483508 36.000000
35.502991 23.000000
35.522473 20.000000
35.541955 38.000000
35.561438 28.000000
35.580920 31.000000
35.600403 31.000000
35.619885 23.000000
35.639367 25.000000
35.658850 28.000000
35.678332 29.000000
35.697814 26.000000
35.717297 30.000000
35.736779 27.000000
35.756261 29.000000
35.775744 27.000000
35.795226 33.000000
35.814709 21.000000
35.834191 27.000000
35.853673 31.000000
35.873156 24.000000
35.892638 30.000000
35.912120 24.000000
35.931603 24.000000
35.951085 22.000000
35.970568 28.000000
35.990050 29.000000
36.009532 21.000000
36.029015 30.000000
36.048497 29.000000
36.067979 32.000000
36.087462 22.000000
36.106944 21.000000
36.126426 27.000000
36.145909 19.000000
36.165391 31.000000
36.184874 32.000000
36.204356 28.000000
36.223838 31.000000
36.243321 28.000000
36.262803 20.000000
36.282285 32.000000
36.301768 21.000000
36.321250 28.000000
36.340733 24.000000
36.360215 24.000000
36.379697 29.000000
36.399180 21.000000
36.418662 24.000000
36.438144 25.000000
36.457627 19.000000
36.477109 16.000000
36.496592 27.000000
36.516074 27.000000
36.535556 21.000000
36.555039 29.000000
36.574521 19.000000
36.594003 29.000000
36.613486 35.000000
36.632968 24.000000
36.652450 29.000000
36.671933 20.000000
36.691415 30.000000
36.710898 35.000000
36.730380 25.000000
36.749862 15.000000
36.769345 23.000000
36.788827 31.000000
36.808309 30.000000
36.827792 27.000000
36.847274 32.000000
36.866757 24.000000
36.886239 23.000000
36.905721 27.000000
36.925204 34.000000
36.944686 33.000000
36.964168 32.000000
36.983651 27.000000
37.003133 19.000000
37.022615 42.000000
37.042098 53.000000
37.061580 70.000000
37.081063 89.000000
37.100545 63.000000
37.120027 36.000000
37.139510 52.000000
37.158992 53.000000
37.178474 62.000000
37.197957 52.000000
37.217439 24.000000
37.236922 31.000000
37.256404 34.000000
37.275886 30.000000
37.295369 19.000000
37.314851 28.000000
37.334333 21.000000
37.353816 24.000000
37.373298 33.000000
37.392780 36.000000
37.412263 27.000000
37.431745 28.000000
37.451228 18.000000
37.470710 23.000000
37.490192 34.000000
37.509675 29.000000
37.529157 27.000000
37.548639 21.000000
37.568122 18.000000
37.587604 29.000000
37.607087 24.000000
37.626569 31.000000
37.646051 29.000000
37.665534 27.000000
37.685016 25.000000
37.704498 24.000000
37.723981 30.000000
37.743463 21.000000
37.762945 22.000000
37.782428 24.000000
37.801910 24.000000
37.821393 32.000000
37.840875 27.000000
37.860357 32.000000
37.879840 33.000000
37.899322 22.000000
37.918804 22.000000
37.938287 23.000000
37.957769 19.000000
37.977252 26.000000
37.996734 20.000000
38.016216 28.000000
38.035699 30.000000
38.055181 30.000000
38.074663 15.000000
38.094146 31.000000
38.113628 30.000000
38.133111 22.000000
38.152593 28.000000
38.172075 18.000000
38.191558 32.000000
38.211040 31.000000
38.230522 21.000000
38.250005 33.000000
38.269487 19.000000
38.288969 28.000000
38.308452 35.000000
38.327934 25.000000
38.347417 26.000000
38.366899 29.000000
38.386381 38.000000
38.405864 27.000000
38.425346 25.000000
38.444828 27.000000
38.464311 31.000000
38.483793 16.000000
38.503276 30.000000
38.522758 24.000000
38.542240 28.000000
38.561723 23.000000
38.581205 28.000000
38.600687 31.000000
38.620170 24.000000
38.639652 22.000000
38.659134 30.000000
38.678617 34.000000
38.698099 29.000000
38.717582 24.000000
38.737064 18.000000
38.756546 25.000000
38.776029 26.000000
38.795511 29.000000
38.814993 27.000000
38.834476 18.000000
38.853958 27.000000
38.873441 21.000000
38.892923 30.000000
38.912405 27.000000
38.931888 25.000000
38.951370 30.000000
38.970852 33.000000
38.990335 27.000000
39.009817 27.000000
39.029299 25.000000
39.048782 29.000000
39.068264 24.000000
39.087747 28.000000
39.107229 20.000000
39.126711 28.000000
39.146194 35.000000
39.165676 19.000000
39.185158 27.000000
39.204641 29.000000
39.224123 21.000000
39.243606 23.000000
39.263088 28.000000
39.282570 21.000000
39.302053 32.000000
39.321535 25.000000
39.341017 27.000000
39.360500 28.000000
39.379982 26.000000
39.399464 23.000000
39.418947 27.000000
39.438429 31.000000
39.457912 27.000000
39.477394 30.000000
39.496876 31.000000
39.516359 26.000000
39.535841 32.000000
39.555323 31.000000
39.574806 24.000000
39.594288 24.000000
39.613771 27.000000
39.633253 29.000000
39.652735 26.000000
39.672218 32.000000
39.691700 32.000000
39.711182 33.000000
39.730665 29.000000
39.750147 30.000000
39.769630 29.000000
39.789112 28.000000
39.808594 27.000000
39.828077 27.000000
39.847559 34.000000
39.867041 24.000000
39.886524 27.000000
39.906006 30.000000
39.925488 33.000000
39.944971 25.000000
39.964453 24.000000
39.983936 23.000000
40.003418 31.000000
40.022900 23.000000
40.042383 31.000000
40.061865 41.000000
40.081347 27.000000
40.100830 32.000000
40.120312 21.000000
40.139795 22.000000
40.159277 21.000000
40.178759 23.000000
40.198242 51.000000
40.217724 24.000000
40.237206 27.000000
40.256689 25.000000
40.276171 19.000000
40.295653 29.000000
40.315136 26.000000
40.334618 36.000000
40.354101 29.000000
40.373583 19.000000
40.393065 24.000000
40.412548 26.000000
40.432030 33.000000
40.451512 33.000000
40.470995 32.000000
40.490477 22.000000
40.509960 34.000000
40.529442 29.000000
40.548924 24.000000
40.568407 24.000000
40.587889 25.000000
40.607371 28.000000
40.626854 38.000000
40.646336 28.000000
40.665818 33.000000
40.685301 45.000000
40.704783 49.000000
40.724266 50.000000
40.743748 78.000000
40.763230 70.000000
40.782713 83.000000
40.802195 36.000000
40.821677 37.000000
40.841160 50.000000
40.860642 67.000000
40.880125 60.000000
40.899607 42.000000
40.919089 40.000000
40.938572 23.000000
40.958054 27.000000
40.977536 27.000000
40.997019 34.000000
41.016501 26.000000
41.035983 23.000000
41.055466 20.000000
41.074948 31.000000
41.094431 28.000000
41.113913 28.000000
41.133395 30.000000
41.152878 22.000000
41.172360 28.000000
41.191842 29.000000
41.211325 25.000000
41.230807 23.000000
41.250290 24.000000
41.269772 28.000000
41.289254 20.000000
41.308737 22.000000
41.328219 29.000000
41.347701 34.000000
41.367184 29.000000
41.386666 26.000000
41.406149 23.000000
41.425631 25.000000
41.445113 29.000000
41.464596 28.000000
41.484078 29.000000
41.503560 21.000000
41.523043 26.000000
41.542525 27.000000
41.562007 20.000000
41.581490 27.000000
41.600972 30.000000
41.620455 27.000000
41.639937 23.000000
41.659419 31.000000
41.678902 34.000000
41.698384 35.000000
41.717866 27.000000
41.737349 28.000000
41.756831 25.000000
41.776314 18.000000
41.795796 38.000000
41.815278 35.000000
41.834761 31.000000
41.854243 19.000000
41.873725 25.000000
41.893208 22.000000
41.912690 28.000000
41.932172 25.000000
41.951655 21.000000
41.971137 30.000000
41.990620 26.000000
42.010102 29.000000
42.029584 28.000000
42.049067 25.000000
42.068549 35.000000
42.088031 36.000000
42.107514 28.000000
42.126996 22.000000
42.146479 33.000000
42.165961 30.000000
42.185443 23.000000
42.204926 20.000000
42.224408 24.000000
42.243890 28.000000
42.263373 22.000000
42.282855 25.000000
42.302337 27.000000
42.321820 24.000000
42.341302 25.000000
42.360785 22.000000
42.380267 34.000000
42.399749 27.000000
42.419232 35.000000
42.438714 25.000000
42.458196 27.000000
42.477679 19.000000
42.497161 24.000000
42.516644 28.000000
42.536126 28.000000
42.555608 27.000000
42.575091 28.000000
42.594573 31.000000
42.614055 28.000000
42.633538 27.000000
42.653020 23.000000
42.672502 31.000000
42.691985 36.000000
42.711467 30.000000
42.730950 21.000000
42.750432 24.000000
42.769914 22.000000
42.789397 23.000000
42.808879 27.000000
42.828361 25.000000
42.847844 26.000000
42.867326 15.000000
42.886809 25.000000
42.906291 30.000000
42.925773 28.000000
42.945256 25.000000
42.964738 31.000000
42.984220 50.000000
43.003703 24.000000
43.023185 25.000000
43.042667 24.000000
43.062150 23.000000
43.081632 31.000000
43.101115 24.000000
43.120597 27.000000
43.140079 33.000000
43.159562 28.000000
43.179044 33.000000
43.198526 22.000000
43.218009 23.000000
43.237491 30.000000
43.256974 32.000000
43.276456 32.000000
43.295938 36.000000
43.315421 30.000000
43.334903 21.000000
43.354385 27.000000
43.373868 33.000000
43.393350 25.000000
43.412833 21.000000
43.432315 29.000000
43.451797 26.000000
43.471280 38.000000
43.490762 28.000000
43.510244 34.000000
43.529727 20.000000
43.549209 39.000000
43.568691 29.000000
43.588174 34.000000
43.607656 27.000000
43.627139 23.000000
43.646621 26.000000
43.666103 19.000000
43.685586 33.000000
43.705068 27.000000
43.724550 32.000000
43.744033 30.000000
43.763515 20.000000
43.782998 29.000000
43.802480 32.000000
43.821962 20.000000
43.841445 25.000000
43.860927 32.000000
43.880409 28.000000
43.899892 18.000000
43.919374 22.000000
43.938856 31.000000
43.958339 21.000000
43.977821 24.000000
43.997304 27.000000
44.016786 17.000000
44.036268 33.000000
44.055751 29.000000
44.075233 25.000000
44.094715 36.000000
44.114198 26.000000
44.133680 17.000000
44.153163 32.000000
44.172645 27.000000
44.192127 25.000000
44.211610 39.000000
44.231092 32.000000
44.250574 27.000000
44.270057 27.000000
44.289539 28.000000
44.309021 21.000000
44.328504 31.000000
44.347986 30.000000
44.367469 23.000000
44.386951 32.000000
44.406433 26.000000
44.425916 24.000000
44.445398 38.000000
44.464880 35.000000
44.484363 27.000000
44.503845 22.000000
44.523328 42.000000
44.542810 17.000000
44.562292 29.000000
44.581775 33.000000
44.601257 24.000000
44.620739 26.000000
44.640222 36.000000
44.659704 30.000000
44.679186 39.000000
44.698669 22.000000
44.718151 24.000000
44.737634 40.000000
44.757116 30.000000
44.776598 23.000000
44.796081 19.000000
44.815563 29.000000
44.835045 30.000000
44.854528 23.000000
44.874010 41.000000
44.893493 23.000000
44.912975 39.000000
44.932457 28.000000
44.951940 42.000000
44.971422 35.000000
44.990904 18.000000
45.010387 36.000000
45.029869 25.000000
45.049352 41.000000
45.068834 27.000000
45.088316 25.000000
45.107799 15.000000
45.127281 21.000000
45.146763 31.000000
45.166246 30.000000
45.185728 29.000000
45.205210 31.000000
45.224693 25.000000
45.244175 24.000000
45.263658 32.000000
45.283140 32.000000
45.302622 25.000000
45.322105 26.000000
45.341587 27.000000
45.361069 36.000000
45.380552 29.000000
45.400034 34.000000
45.419517 31.000000
45.438999 26.000000
45.458481 31.000000
45.477964 34.000000
45.497446 28.000000
45.516928 40.000000
45.536411 27.000000
45.555893 34.000000
45.575375 31.000000
45.594858 27.000000
45.614340 26.000000
45.633823 27.000000
45.653305 22.000000
45.672787 35.000000
45.692270 35.000000
45.711752 15.000000
45.731234 33.000000
45.750717 25.000000
45.770199 35.000000
45.789682 26.000000
45.809164 21.000000
45.828646 20.000000
45.848129 33.000000
45.867611 23.000000
45.887093 29.000000
45.906576 26.000000
45.926058 23.000000
45.945540 32.000000
45.965023 27.000000
45.984505 19.000000
46.003988 33.000000
46.023470 35.000000
46.042952 38.000000
46.062435 30.000000
46.081917 26.000000
46.101399 29.000000
46.120882 28.000000
46.140364 26.000000
46.159847 34.000000
46.179329 28.000000
46.198811 27.000000
46.218294 40.000000
46.237776 30.000000
46.257258 25.000000
46.276741 32.000000
46.296223 25.000000
46.315705 21.000000
46.335188 31.000000
46.354670 28.000000
46.374153 30.000000
46.393635 18.000000
46.413117 31.000000
46.432600 26.000000
46.452082 33.000000
46.471564 21.000000
46.491047 30.000000
46.510529 20.000000
46.530012 25.000000
46.549494 34.000000
46.568976 18.000000
46.588459 29.000000
46.607941 30.000000
46.627423 15.000000
46.646906 33.000000
46.666388 37.000000
46.685871 26.000000
46.705353 30.000000
46.724835 24.000000
46.744318 34.000000
46.763800 29.000000
46.783282 25.000000
46.802765 29.000000
46.822247 32.000000
46.841729 27.000000
46.861212 31.000000
46.880694 25.000000
46.900177 25.000000
46.919659 29.000000
46.939141 33.000000
46.958624 25.000000
46.978106 24.000000
46.997588 23.000000
47.017071 25.000000
47.036553 37.000000
47.056036 31.000000
47.075518 35.000000
47.095000 24.000000
47.114483 38.000000
47.133965 31.000000
47.153447 19.000000
47.172930 28.000000
47.192412 26.000000
47.211894 29.000000
47.231377 24.000000
47.250859 26.000000
47.270342 26.000000
47.289824 27.000000
47.309306 29.000000
47.328789 28.000000
47.348271 49.000000
47.367753 33.000000
47.387236 55.000000
47.406718 85.000000
47.426201 65.000000
47.445683 59.000000
47.465165 30.000000
47.484648 42.000000
47.504130 41.000000
47.523612 36.000000
47.543095 56.000000
47.562577 46.000000
47.582059 31.000000
47.601542 30.000000
47.621024 22.000000
47.640507 35.000000
47.659989 26.000000
47.679471 24.000000
47.698954 28.000000
47.718436 29.000000
47.737918 20.000000
47.757401 25.000000
47.776883 25.000000
47.796366 26.000000
47.815848 18.000000
47.835330 24.000000
47.854813 27.000000
47.874295 22.000000
47.893777 23.000000
47.913260 22.000000
47.932742 24.000000
47.952224 24.000000
47.971707 30.000000
47.991189 31.000000
48.010672 34.000000
48.030154 34.000000
48.049636 25.000000
48.069119 30.000000
48.088601 26.000000
48.108083 26.000000
48.127566 32.000000
48.147048 30.000000
48.166531 21.000000
48.186013 35.000000
48.205495 25.000000
48.224978 36.000000
48.244460 28.000000
48.263942 27.000000
48.283425 34.000000
48.302907 25.000000
48.322389 25.000000
48.341872 25.000000
48.361354 31.000000
48.380837 31.000000
48.400319 25.000000
48.419801 30.000000
48.439284 30.000000
48.458766 26.000000
48.478248 23.000000
48.497731 25.000000
48.517213 25.000000
48.536696 25.000000
48.556178 34.000000
48.575660 27.000000
48.595143 33.000000
48.614625 32.000000
48.634107 34.000000
48.653590 33.000000
48.673072 29.000000
48.692555 21.000000
48.712037 35.000000
48.731519 24.000000
48.751002 34.000000
48.770484 38.000000
48.789966 27.000000
48.809449 23.000000
48.828931 29.000000
48.848413 27.000000
48.867896 26.000000
48.887378 22.000000
48.906861 30.000000
48.926343 31.000000
48.945825 27.000000
48.965308 17.000000
48.984790 30.000000
49.004272 27.000000
49.023755 27.000000
49.043237 39.000000
49.062720 26.000000
49.082202 39.000000
49.101684 34.000000
49.121167 27.000000
49.140649 30.000000
49.160131 38.000000
49.179614 31.000000
49.199096 26.000000
49.218578 19.000000
49.238061 26.000000
49.257543 29.000000
49.277026 33.000000
49.296508 32.000000
49.315990 28.000000
49.335473 29.000000
49.354955 26.000000
49.374437 30.000000
49.393920 38.000000
49.413402 24.000000
49.432885 34.000000
49.452367 29.000000
49.471849 23.000000
49.491332 20.000000
49.510814 31.000000
49.530296 15.000000
49.549779 24.000000
49.569261 30.000000
49.588743 28.000000
49.608226 21.000000
49.627708 25.000000
49.647191 38.000000
49.666673 38.000000
49.686155 24.000000
49.705638 26.000000
49.725120 26.000000
49.744602 30.000000
49.764085 30.000000
49.783567 28.000000
49.803050 29.000000
49.822532 28.000000
49.842014 27.000000
49.861497 38.000000
49.880979 27.000000
49.900461 31.000000
49.919944 26.000000
49.939426 27.000000
49.958908 22.000000
49.978391 27.000000
49.997873 33.000000
50.017356 19.000000
50.036838 28.000000
50.056320 32.000000
50.075803 32.000000
50.095285 28.000000
50.114767 29.000000
50.134250 28.000000
50.153732 31.000000
50.173215 30.000000
50.192697 28.000000
50.212179 27.000000
50.231662 31.000000
50.251144 31.000000
50.270626 28.000000
50.290109 30.000000
50.309591 32.000000
50.329074 26.000000
50.348556 33.000000
50.368038 27.000000
50.387521 35.000000
50.407003 20.000000
50.426485 36.000000
50.445968 32.000000
50.465450 31.000000
50.484932 17.000000
50.504415 33.000000
50.523897 21.000000
50.543380 23.000000
50.562862 31.000000
50.582344 40.000000
50.601827 29.000000
50.621309 32.000000
50.640791 24.000000
50.660274 23.000000
50.679756 37.000000
50.699239 34.000000
50.718721 27.000000
50.738203 27.000000
50.757686 31.000000
50.777168 26.000000
50.796650 26.000000
50.816133 29.000000
50.835615 37.000000
50.855097 29.000000
50.874580 29.000000
50.894062 36.000000
50.913545 37.000000
50.933027 38.000000
50.952509 26.000000
50.971992 15.000000
50.991474 33.000000
51.010956 36.000000
51.030439 33.000000
51.049921 31.000000
51.069404 27.000000
51.088886 36.000000
51.108368 31.000000
51.127851 28.000000
51.147333 37.000000
51.166815 28.000000
51.186298 27.000000
51.205780 26.000000
51.225262 37.000000
51.244745 27.000000
51.264227 26.000000
51.283710 38.000000
51.303192 21.000000
51.322674 41.000000
51.342157 32.000000
51.361639 25.000000
51.381121 29.000000
51.400604 31.000000
51.420086 22.000000
51.439569 29.000000
51.459051 35.000000
51.478533 30.000000
51.498016 31.000000
51.517498 26.000000
51.536980 24.000000
51.556463 36.000000
51.575945 42.000000
51.595427 25.000000
51.614910 35.000000
51.634392 39.000000
51.653875 26.000000
51.673357 33.000000
51.692839 31.000000
51.712322 30.000000
51.731804 23.000000
51.751286 27.000000
51.770769 27.000000
51.790251 26.000000
51.809734 32.000000
51.829216 25.000000
51.848698 27.000000
51.868181 23.000000
51.887663 15.000000
51.907145 31.000000
51.926628 34.000000
51.946110 37.000000
51.965593 25.000000
51.985075 30.000000
52.004557 19.000000
52.024040 27.000000
52.043522 34.000000
52.063004 25.000000
52.082487 27.000000
52.101969 26.000000
52.121451 30.000000
52.140934 30.000000
52.160416 34.000000
52.179899 29.000000
52.199381 24.000000
52.218863 35.000000
52.238346 23.000000
52.257828 24.000000
52.277310 23.000000
52.296793 31.000000
52.316275 30.000000
52.335758 31.000000
52.355240 21.000000
52.374722 30.000000
52.394205 25.000000
52.413687 25.000000
52.433169 24.000000
52.452652 29.000000
52.472134 30.000000
52.491616 24.000000
52.511099 24.000000
52.530581 20.000000
52.550064 27.000000
52.569546 36.000000
52.589028 29.000000
52.608511 32.000000
52.627993 31.000000
52.647475 32.000000
52.666958 24.000000
52.686440 24.000000
52.705923 35.000000
52.725405 35.000000
52.744887 30.000000
52.764370 22.000000
52.783852 34.000000
52.803334 25.000000
52.822817 40.000000
52.842299 24.000000
52.861781 27.000000
52.881264 29.000000
52.900746 24.000000
52.920229 28.000000
52.939711 25.000000
52.959193 36.000000
52.978676 25.000000
52.998158 29.000000
53.017640 25.000000
53.037123 22.000000
53.056605 39.000000
53.076088 34.000000
53.095570 24.000000
53.115052 35.000000
53.134535 25.000000
53.154017 33.000000
53.173499 26.000000
53.192982 20.000000
53.212464 29.000000
53.231946 25.000000
53.251429 28.000000
53.270911 31.000000
53.290394 31.000000
53.309876 30.000000
53.329358 27.000000
53.348841 24.000000
53.368323 38.000000
53.387805 32.000000
53.407288 22.000000
53.426770 38.000000
53.446253 32.000000
53.465735 30.000000
53.485217 24.000000
53.504700 29.000000
53.524182 33.000000
53.543664 34.000000
53.563147 32.000000
53.582629 34.000000
53.602112 26.000000
53.621594 25.000000
53.641076 23.000000
53.660559 24.000000
53.680041 33.000000
53.699523 30.000000
53.719006 27.000000
53.738488 24.000000
53.757970 33.000000
53.777453 28.000000
53.796935 31.000000
53.816418 24.000000
53.835900 23.000000
53.855382 26.000000
53.874865 25.000000
53.894347 28.000000
53.913829 30.000000
53.933312 29.000000
53.952794 22.000000
53.972277 29.000000
53.991759 27.000000
54.011241 24.000000
54.030724 24.000000
54.050206 27.000000
54.069688 37.000000
54.089171 31.000000
54.108653 27.000000
54.128135 32.000000
54.147618 34.000000
54.167100 25.000000
54.186583 23.000000
54.206065 36.000000
54.225547 43.000000
54.245030 40.000000
54.264512 28.000000
54.283994 33.000000
54.303477 22.000000
54.322959 32.000000
54.342442 27.000000
54.361924 25.000000
54.381406 28.000000
54.400889 25.000000
54.420371 25.000000
54.439853 25.000000
54.459336 31.000000
54.478818 27.000000
54.498300 29.000000
54.517783 22.000000
54.537265 34.000000
54.556748 34.000000
54.576230 22.000000
54.595712 32.000000
54.615195 42.000000
54.634677 26.000000
54.654159 35.000000
54.673642 20.000000
54.693124 33.000000
54.712607 30.000000
54.732089 26.000000
54.751571 36.000000
54.771054 14.000000
54.790536 21.000000
54.810018 23.000000
54.829501 25.000000
54.848983 19.000000
54.868465 27.000000
54.887948 23.000000
54.907430 26.000000
54.926913 30.000000
54.946395 25.000000
54.965877 34.000000
54.985360 33.000000
55.004842 32.000000
55.024324 29.000000
55.043807 30.000000
55.063289 25.000000
55.082772 27.000000
55.102254 36.000000
55.121736 26.000000
55.141219 39.000000
55.160701 26.000000
55.180183 29.000000
55.199666 30.000000
55.219148 28.000000
55.238630 19.000000
55.258113 22.000000
55.277595 26.000000
55.297078 32.000000
55.316560 35.000000
55.336042 35.000000
55.355525 29.000000
55.375007 24.000000
55.394489 30.000000
55.413972 20.000000
55.433454 23.000000
55.452937 31.000000
55.472419 26.000000
55.491901 31.000000
55.511384 22.000000
55.530866 38.000000
55.550348 27.000000
55.569831 24.000000
55.589313 28.000000
55.608796 28.000000
55.628278 39.000000
55.647760 27.000000
55.667243 33.000000
55.686725 25.000000
55.706207 30.000000
55.725690 32.000000
55.745172 35.000000
55.764654 26.000000
55.784137 40.000000
55.803619 34.000000
55.823102 22.000000
55.842584 33.000000
55.862066 38.000000
55.881549 31.000000
55.901031 31.000000
55.920513 29.000000
55.939996 38.000000
55.959478 28.000000
55.978961 31.000000
55.998443 31.000000
56.017925 34.000000
56.037408 34.000000
56.056890 28.000000
56.076372 36.000000
56.095855 36.000000
56.115337 36.000000
56.134819 26.000000
56.154302 29.000000
56.173784 36.000000
56.193267 41.000000
56.212749 47.000000
56.232231 102.000000
56.251714 118.000000
56.271196 147.000000
56.290678 106.000000
56.310161 64.000000
56.329643 60.000000
56.349126 55.000000
56.368608 53.000000
56.388090 67.000000
56.407573 90.000000
56.427055 90.000000
56.446537 55.000000
56.466020 55.000000
56.485502 43.000000
56.504984 36.000000
56.524467 33.000000
56.543949 39.000000
56.563432 27.000000
56.582914 23.000000
56.602396 29.000000
56.621879 29.000000
56.641361 40.000000
56.660843 33.000000
56.680326 28.000000
56.699808 25.000000
56.719291 24.000000
56.738773 29.000000
56.758255 21.000000
56.777738 20.000000
56.797220 23.000000
56.816702 21.000000
56.836185 29.000000
56.855667 23.000000
56.875149 34.000000
56.894632 26.000000
56.914114 28.000000
56.933597 34.000000
56.953079 27.000000
56.972561 34.000000
56.992044 24.000000
57.011526 28.000000
57.031008 36.000000
57.050491 30.000000
57.069973 37.000000
57.089456 31.000000
57.108938 22.000000
57.128420 30.000000
57.147903 33.000000
57.167385 30.000000
57.186867 34.000000
57.206350 30.000000
57.225832 28.000000
57.245315 26.000000
57.264797 31.000000
57.284279 27.000000
57.303762 37.000000
57.323244 32.000000
57.342726 33.000000
57.362209 25.000000
57.381691 39.000000
57.401173 22.000000
57.420656 24.000000
57.440138 32.000000
57.459621 29.000000
57.479103 34.000000
57.498585 23.000000
57.518068 30.000000
57.537550 34.000000
57.557032 31.000000
57.576515 24.000000
57.595997 21.000000
57.615480 28.000000
57.634962 24.000000
57.654444 22.000000
57.673927 38.000000
57.693409 26.000000
57.712891 32.000000
57.732374 27.000000
57.751856 31.000000
57.771338 37.000000
57.790821 27.000000
57.810303 31.000000
57.829786 30.000000
57.849268 34.000000
57.868750 33.000000
57.888233 31.000000
57.907715 36.000000
57.927197 28.000000
57.946680 35.000000
57.966162 22.000000
57.985645 23.000000
58.005127 34.000000
58.024609 31.000000
58.044092 37.000000
58.063574 32.000000
58.083056 27.000000
58.102539 29.000000
58.122021 29.000000
58.141503 23.000000
58.160986 29.000000
58.180468 34.000000
58.199951 39.000000
58.219433 24.000000
58.238915 27.000000
58.258398 20.000000
58.277880 31.000000
58.297362 21.000000
58.316845 26.000000
58.336327 27.000000
58.355810 32.000000
58.375292 30.000000
58.394774 33.000000
58.414257 27.000000
58.433739 26.000000
58.453221 33.000000
58.472704 21.000000
58.492186 26.000000
58.511668 37.000000
58.531151 32.000000
58.550633 32.000000
58.570116 26.000000
58.589598 29.000000
58.609080 23.000000
58.628563 25.000000
58.648045 31.000000
58.667527 31.000000
58.687010 37.000000
58.706492 30.000000
58.725975 21.000000
58.745457 18.000000
58.764939 25.000000
58.784422 29.000000
58.803904 35.000000
58.823386 29.000000
58.842869 27.000000
58.862351 41.000000
58.881834 35.000000
58.901316 22.000000
58.920798 37.000000
58.940281 22.000000
58.959763 30.000000
58.979245 37.000000
58.998728 42.000000
59.018210 41.000000
59.037692 27.000000
59.057175 43.000000
59.076657 42.000000
59.096140 36.000000
59.115622 40.000000
59.135104 32.000000
59.154587 39.000000
59.174069 46.000000
59.193551 44.000000
59.213034 41.000000
59.232516 36.000000
59.251999 26.000000
59.271481 40.000000
59.290963 32.000000
59.310446 25.000000
59.329928 28.000000
59.349410 27.000000
59.368893 30.000000
59.388375 38.000000
59.407857 31.000000
59.427340 26.000000
59.446822 21.000000
59.466305 30.000000
59.485787 43.000000
59.505269 26.000000
59.524752 33.000000
59.544234 33.000000
59.563716 30.000000
59.583199 39.000000
59.602681 30.000000
59.622164 42.000000
59.641646 29.000000
59.661128 30.000000
59.680611 37.000000
59.700093 29.000000
59.719575 29.000000
59.739058 18.000000
59.758540 31.000000
59.778022 28.000000
59.797505 31.000000
59.816987 26.000000
59.836470 36.000000
59.855952 30.000000
59.875434 26.000000
59.894917 26.000000
59.914399 26.000000
59.933881 36.000000
59.953364 36.000000
59.972846 22.000000
59.992329 34.000000
60.011811 29.000000
60.031293 27.000000
60.050776 29.000000
60.070258 28.000000
60.089740 41.000000
60.109223 37.000000
60.128705 31.000000
60.148187 34.000000
60.167670 30.000000
60.187152 33.000000
60.206635 34.000000
60.226117 36.000000
60.245599 31.000000
60.265082 43.000000
60.284564 29.000000
60.304046 32.000000
60.323529 33.000000
60.343011 25.000000
60.362494 47.000000
60.381976 33.000000
60.401458 26.000000
60.420941 28.000000
60.440423 33.000000
60.459905 28.000000
60.479388 29.000000
60.498870 27.000000
60.518352 31.000000
60.537835 29.000000
60.557317 27.000000
60.576800 29.000000
60.596282 31.000000
60.615764 37.000000
60.635247 32.000000
60.654729 43.000000
60.674211 31.000000
60.693694 24.000000
60.713176 43.000000
60.732659 26.000000
60.752141 17.000000
60.771623 32.000000
60.791106 27.000000
60.810588 34.000000
60.830070 30.000000
60.849553 25.000000
60.869035 29.000000
60.888518 28.000000
60.908000 28.000000
60.927482 27.000000
60.946965 32.000000
60.966447 39.000000
60.985929 23.000000
61.005412 27.000000
61.024894 30.000000
61.044376 28.000000
61.063859 32.000000
61.083341 42.000000
61.102824 38.000000
61.122306 29.000000
61.141788 23.000000
61.161271 34.000000
61.180753 22.000000
61.200235 38.000000
61.219718 25.000000
61.239200 29.000000
61.258683 34.000000
61.278165 28.000000
61.297647 32.000000
61.317130 33.000000
61.336612 25.000000
61.356094 30.000000
61.375577 35.000000
61.395059 28.000000
61.414541 30.000000
61.434024 30.000000
61.453506 21.000000
61.472989 30.000000
61.492471 21.000000
61.511953 21.000000
61.531436 39.000000
61.550918 21.000000
61.570400 37.000000
61.589883 20.000000
61.609365 30.000000
61.628848 37.000000
61.648330 33.000000
61.667812 58.000000
61.687295 52.000000
61.706777 45.000000
61.726259 30.000000
61.745742 44.000000
61.765224 25.000000
61.784706 40.000000
61.804189 33.000000
61.823671 34.000000
61.843154 52.000000
61.862636 27.000000
61.882118 40.000000
61.901601 35.000000
61.921083 35.000000
61.940565 39.000000
61.960048 28.000000
61.979530 30.000000
61.999013 25.000000
62.018495 30.000000
62.037977 35.000000
62.057460 19.000000
62.076942 28.000000
62.096424 29.000000
62.115907 40.000000
62.135389 26.000000
62.154871 31.000000
62.174354 28.000000
62.193836 27.000000
62.213319 32.000000
62.232801 29.000000
62.252283 38.000000
62.271766 23.000000
62.291248 29.000000
62.310730 32.000000
62.330213 34.000000
62.349695 28.000000
62.369178 38.000000
62.388660 29.000000
62.408142 35.000000
62.427625 37.000000
62.447107 29.000000
62.466589 28.000000
62.486072 24.000000
62.505554 36.000000
62.525037 20.000000
62.544519 28.000000
62.564001 27.000000
62.583484 30.000000
62.602966 24.000000
62.622448 35.000000
62.641931 38.000000
62.661413 25.000000
62.680895 36.000000
62.700378 34.000000
62.719860 25.000000
62.739343 19.000000
62.758825 27.000000
62.778307 42.000000
62.797790 24.000000
62.817272 22.000000
62.836754 29.000000
62.856237 40.000000
62.875719 36.000000
62.895202 21.000000
62.914684 34.000000
62.934166 29.000000
62.953649 34.000000
62.973131 36.000000
62.992613 32.000000
63.012096 27.000000
63.031578 27.000000
63.051060 27.000000
63.070543 32.000000
63.090025 32.000000
63.109508 40.000000
63.128990 25.000000
63.148472 31.000000
63.167955 27.000000
63.187437 21.000000
63.206919 34.000000
63.226402 34.000000
63.245884 31.000000
63.265367 31.000000
63.284849 36.000000
63.304331 30.000000
63.323814 30.000000
63.343296 28.000000
63.362778 26.000000
63.382261 38.000000
63.401743 22.000000
63.421225 24.000000
63.440708 24.000000
63.460190 36.000000
63.479673 21.000000
63.499155 35.000000
63.518637 27.000000
63.538120 35.000000
63.557602 30.000000
63.577084 29.000000
63.596567 39.000000
63.616049 27.000000
63.635532 31.000000
63.655014 29.000000
63.674496 24.000000
63.693979 27.000000
63.713461 27.000000
63.732943 40.000000
63.752426 29.000000
63.771908 25.000000
63.791390 34.000000
63.810873 31.000000
63.830355 32.000000
63.849838 36.000000
63.869320 25.000000
63.888802 35.000000
63.908285 38.000000
63.927767 33.000000
63.947249 29.000000
63.966732 21.000000
63.986214 37.000000
64.005697 37.000000
64.025179 25.000000
64.044661 44.000000
64.064144 28.000000
64.083626 29.000000
64.103108 24.000000
64.122591 24.000000
64.142073 30.000000
64.161556 28.000000
64.181038 40.000000
64.200520 30.000000
64.220003 37.000000
64.239485 48.000000
64.258967 47.000000
64.278450 71.000000
64.297932 66.000000
64.317414 66.000000
64.336897 43.000000
64.356379 48.000000
64.375862 37.000000
64.395344 26.000000
64.414826 33.000000
64.434309 50.000000
64.453791 36.000000
64.473273 51.000000
64.492756 50.000000
64.512238 44.000000
64.531721 32.000000
64.551203 31.000000
64.570685 28.000000
64.590168 42.000000
64.609650 29.000000
64.629132 51.000000
64.648615 32.000000
64.668097 22.000000
64.687579 25.000000
64.707062 30.000000
64.726544 25.000000
64.746027 32.000000
64.765509 33.000000
64.784991 26.000000
64.804474 30.000000
64.823956 26.000000
64.843438 13.000000
64.862921 27.000000
64.882403 30.000000
64.901886 26.000000
64.921368 34.000000
64.940850 35.000000
64.960333 23.000000
64.979815 31.000000
64.999297 37.000000
65.018780 21.000000
65.038262 36.000000
65.057744 20.000000
65.077227 26.000000
65.096709 28.000000
65.116192 35.000000
65.135674 30.000000
65.155156 39.000000
65.174639 34.000000
65.194121 33.000000
65.213603 34.000000
65.233086 34.000000
65.252568 36.000000
65.272051 31.000000
65.291533 26.000000
65.311015 34.000000
65.330498 34.000000
65.349980 16.000000
65.369462 35.000000
65.388945 32.000000
65.408427 35.000000
65.427909 35.000000
65.447392 32.000000
65.466874 26.000000
65.486357 31.000000
65.505839 23.000000
65.525321 36.000000
65.544804 37.000000
65.564286 20.000000
65.583768 27.000000
65.603251 31.000000
65.622733 40.000000
65.642216 39.000000
65.661698 21.000000
65.681180 28.000000
65.700663 26.000000
65.720145 38.000000
65.739627 29.000000
65.759110 29.000000
65.778592 34.000000
65.798075 27.000000
65.817557 25.000000
65.837039 28.000000
65.856522 30.000000
65.876004 31.000000
65.895486 25.000000
65.914969 49.000000
65.934451 32.000000
65.953933 41.000000
65.973416 31.000000
65.992898 32.000000
66.012381 29.000000
66.031863 28.000000
66.051345 37.000000
66.070828 34.000000
66.090310 35.000000
66.109792 27.000000
66.129275 37.000000
66.148757 39.000000
66.168240 36.000000
66.187722 34.000000
66.207204 41.000000
66.226687 38.000000
66.246169 25.000000
66.265651 27.000000
66.285134 26.000000
66.304616 31.000000
66.324098 30.000000
66.343581 27.000000
66.363063 19.000000
66.382546 23.000000
66.402028 31.000000
66.421510 38.000000
66.440993 27.000000
66.460475 36.000000
66.479957 26.000000
66.499440 36.000000
66.518922 38.000000
66.538405 36.000000
66.557887 34.000000
66.577369 28.000000
66.596852 21.000000
66.616334 37.000000
66.635816 40.000000
66.655299 31.000000
66.674781 35.000000
66.694263 28.000000
66.713746 28.000000
66.733228 38.000000
66.752711 38.000000
66.772193 27.000000
66.791675 29.000000
66.811158 28.000000
66.830640 40.000000
66.850122 32.000000
66.869605 35.000000
66.889087 35.000000
66.908570 23.000000
66.928052 31.000000
66.947534 27.000000
66.967017 23.000000
66.986499 36.000000
67.005981 28.000000
67.025464 34.000000
67.044946 29.000000
67.064428 27.000000
67.083911 30.000000
67.103393 31.000000
67.122876 28.000000
67.142358 36.000000
67.161840 32.000000
67.181323 25.000000
67.200805 44.000000
67.220287 25.000000
67.239770 28.000000
67.259252 37.000000
67.278735 41.000000
67.298217 27.000000
67.317699 26.000000
67.337182 40.000000
67.356664 26.000000
67.376146 26.000000
67.395629 37.000000
67.415111 35.000000
67.434593 27.000000
67.454076 30.000000
67.473558 28.000000
67.493041 36.000000
67.512523 25.000000
67.532005 22.000000
67.551488 22.000000
67.570970 25.000000
67.590452 35.000000
67.609935 25.000000
67.629417 32.000000
67.648900 28.000000
67.668382 29.000000
67.687864 34.000000
67.707347 44.000000
67.726829 30.000000
67.746311 34.000000
67.765794 44.000000
67.785276 21.000000
67.804759 37.000000
67.824241 37.000000
67.843723 36.000000
67.863206 33.000000
67.882688 38.000000
67.902170 31.000000
67.921653 19.000000
67.941135 28.000000
67.960617 30.000000
67.980100 25.000000
67.999582 32.000000
68.019065 29.000000
68.038547 33.000000
68.058029 24.000000
68.077512 27.000000
68.096994 19.000000
68.116476 33.000000
68.135959 36.000000
68.155441 43.000000
68.174924 44.000000
68.194406 24.000000
68.213888 22.000000
68.233371 28.000000
68.252853 33.000000
68.272335 35.000000
68.291818 33.000000
68.311300 31.000000
68.330782 27.000000
68.350265 25.000000
68.369747 27.000000
68.389230 42.000000
68.408712 29.000000
68.428194 35.000000
68.447677 18.000000
68.467159 20.000000
68.486641 23.000000
68.506124 21.000000
68.525606 30.000000
68.545089 33.000000
68.564571 36.000000
68.584053 28.000000
68.603536 32.000000
68.623018 28.000000
68.642500 39.000000
68.661983 27.000000
68.681465 35.000000
68.700947 27.000000
68.720430 27.000000
68.739912 35.000000
68.759395 28.000000
68.778877 17.000000
68.798359 33.000000
68.817842 19.000000
68.837324 35.000000
68.856806 38.000000
68.876289 30.000000
68.895771 23.000000
68.915254 40.000000
68.934736 30.000000
68.954218 40.000000
68.973701 31.000000
68.993183 31.000000
69.012665 30.000000
69.032148 23.000000
69.051630 32.000000
69.071112 32.000000
69.090595 34.000000
69.110077 28.000000
69.129560 36.000000
69.149042 26.000000
69.168524 31.000000
69.188007 31.000000
69.207489 37.000000
69.226971 39.000000
69.246454 25.000000
69.265936 30.000000
69.285419 33.000000
69.304901 28.000000
69.324383 36.000000
69.343866 36.000000
69.363348 26.000000
69.382830 31.000000
69.402313 38.000000
69.421795 32.000000
69.441278 33.000000
69.460760 41.000000
69.480242 19.000000
69.499725 32.000000
69.519207 25.000000
69.538689 28.000000
69.558172 30.000000
69.577654 29.000000
69.597136 31.000000
69.616619 39.000000
69.636101 40.000000
69.655584 29.000000
69.675066 31.000000
69.694548 33.000000
69.714031 30.000000
69.733513 38.000000
69.752995 30.000000
69.772478 31.000000
69.791960 40.000000
69.811443 38.000000
69.830925 21.000000
69.850407 24.000000
69.869890 35.000000
69.889372 34.000000
69.908854 31.000000
69.928337 21.000000
69.947819 41.000000
69.967301 36.000000
69.986784 34.000000
70.006266 41.000000
70.025749 35.000000
