4.000000 109.000000
4.019482 105.000000
4.038965 108.000000
4.058447 108.000000
4.077929 90.000000
4.097412 113.000000
4.116894 118.000000
4.136377 124.000000
4.155859 116.000000
4.175341 106.000000
4.194824 96.000000
4.214306 104.000000
4.233788 99.000000
4.253271 100.000000
4.272753 94.000000
4.292236 92.000000
4.311718 107.000000
4.331200 104.000000
4.350683 87.000000
4.370165 110.000000
4.389647 88.000000
4.409130 90.000000
4.428612 91.000000
4.448094 110.000000
4.467577 93.000000
4.487059 72.000000
4.506542 82.000000
4.526024 77.000000
4.545506 101.000000
4.564989 91.000000
4.584471 78.000000
4.603953 77.000000
4.623436 88.000000
4.642918 85.000000
4.662401 91.000000
4.681883 92.000000
4.701365 108.000000
4.720848 90.000000
4.740330 83.000000
4.759812 89.000000
4.779295 84.000000
4.798777 76.000000
4.818259 76.000000
4.837742 78.000000
4.857224 89.000000
4.876707 90.000000
4.896189 80.000000
4.915671 80.000000
4.935154 81.000000
4.954636 77.000000
4.974118 85.000000
4.993601 70.000000
5.013083 81.000000
5.032566 90.000000
5.052048 63.000000
5.071530 92.000000
5.091013 70.000000
5.110495 69.000000
5.129977 70.000000
5.149460 76.000000
5.168942 76.000000
5.188425 78.000000
5.207907 65.000000
5.227389 81.000000
5.246872 65.000000
5.266354 71.000000
5.285836 75.000000
5.305319 71.000000
5.324801 78.000000
5.344283 67.000000
5.363766 83.000000
5.383248 71.000000
5.402731 89.000000
5.422213 68.000000
5.441695 89.000000
5.461178 69.000000
5.480660 74.000000
5.500142 69.000000
5.519625 64.000000
5.539107 79.000000
5.558590 60.000000
5.578072 85.000000
5.597554 61.000000
5.617037 67.000000
5.636519 76.000000
5.656001 69.000000
5.675484 75.000000
5.694966 68.000000
5.714448 64.000000
5.733931 59.000000
5.753413 59.000000
5.772896 61.000000
5.792378 73.000000
5.811860 67.000000
5.831343 65.000000
5.850825 73.000000
5.870307 73.000000
5.889790 76.000000
5.909272 76.000000
5.928755 62.000000
5.948237 53.000000
5.967719 57.000000
5.987202 66.000000
6.006684 73.000000
6.026166 65.000000
6.045649 64.000000
6.065131 71.000000
6.084613 75.000000
6.104096 68.000000
6.123578 70.000000
6.143061 77.000000
6.162543 66.000000
6.182025 61.000000
6.201508 67.000000
6.220990 65.000000
6.240472 67.000000
6.259955 72.000000
6.279437 60.000000
6.298920 54.000000
6.318402 67.000000
6.337884 56.000000
6.357367 69.000000
6.376849 66.000000
6.396331 66.000000
6.415814 72.000000
6.435296 69.000000
6.454778 69.000000
6.474261 68.000000
6.493743 64.000000
6.513226 54.000000
6.532708 83.000000
6.552190 60.000000
6.571673 56.000000
6.591155 61.000000
6.610637 66.000000
6.630120 55.000000
6.649602 51.000000
6.669085 69.000000
6.688567 65.000000
6.708049 64.000000
6.727532 57.000000
6.747014 57.000000
6.766496 68.000000
6.785979 52.000000
6.805461 66.000000
6.824944 62.000000
6.844426 52.000000
6.863908 65.000000
6.883391 66.000000
6.902873 66.000000
6.922355 63.000000
6.941838 60.000000
6.961320 55.000000
6.980802 61.000000
7.000285 55.000000
7.019767 55.000000
7.039250 44.000000
7.058732 57.000000
7.078214 46.000000
7.097697 65.000000
7.117179 65.000000
7.136661 56.000000
7.156144 67.000000
7.175626 53.000000
7.195109 73.000000
7.214591 45.000000
7.234073 70.000000
7.253556 59.000000
7.273038 44.000000
7.292520 61.000000
7.312003 54.000000
7.331485 56.000000
7.350967 45.000000
7.370450 57.000000
7.389932 44.000000
7.409415 55.000000
7.428897 56.000000
7.448379 64.000000
7.467862 54.000000
7.487344 53.000000
7.506826 69.000000
7.526309 56.000000
7.545791 58.000000
7.565274 68.000000
7.584756 56.000000
7.604238 59.000000
7.623721 51.000000
7.643203 61.000000
7.662685 62.000000
7.682168 54.000000
7.701650 46.000000
7.721132 61.000000
7.740615 53.000000
7.760097 69.000000
7.779580 58.000000
7.799062 63.000000
7.818544 55.000000
7.838027 58.000000
7.857509 63.000000
7.876991 61.000000
7.896474 58.000000
7.915956 42.000000
7.935439 55.000000
7.954921 63.000000
7.974403 56.000000
7.993886 61.000000
8.013368 59.000000
8.032850 59.000000
8.052333 69.000000
8.071815 62.000000
8.091297 62.000000
8.110780 57.000000
8.130262 54.000000
8.149745 54.000000
8.169227 55.000000
8.188709 63.000000
8.208192 52.000000
8.227674 59.000000
8.247156 59.000000
8.266639 59.000000
8.286121 70.000000
8.305604 75.000000
8.325086 47.000000
8.344568 49.000000
8.364051 51.000000
8.383533 63.000000
8.403015 61.000000
8.422498 59.000000
8.441980 51.000000
8.461463 60.000000
8.480945 54.000000
8.500427 63.000000
8.519910 55.000000
8.539392 51.000000
8.558874 55.000000
8.578357 68.000000
8.597839 55.000000
8.617321 51.000000
8.636804 66.000000
8.656286 57.000000
8.675769 57.000000
8.695251 49.000000
8.714733 67.000000
8.734216 59.000000
8.753698 61.000000
8.773180 58.000000
8.792663 55.000000
8.812145 57.000000
8.831628 69.000000
8.851110 67.000000
8.870592 63.000000
8.890075 60.000000
8.909557 47.000000
8.929039 62.000000
8.948522 71.000000
8.968004 52.000000
8.987486 64.000000
9.006969 65.000000
9.026451 53.000000
9.045934 45.000000
9.065416 56.000000
9.084898 53.000000
9.104381 57.000000
9.123863 59.000000
9.143345 54.000000
9.162828 70.000000
9.182310 60.000000
9.201793 69.000000
9.221275 52.000000
9.240757 53.000000
9.260240 63.000000
9.279722 71.000000
9.299204 52.000000
9.318687 61.000000
9.338169 59.000000
9.357651 60.000000
9.377134 64.000000
9.396616 62.000000
9.416099 74.000000
9.435581 57.000000
9.455063 61.000000
9.474546 55.000000
9.494028 51.000000
9.513510 43.000000
9.532993 45.000000
9.552475 56.000000
9.571958 62.000000
9.591440 44.000000
9.610922 73.000000
9.630405 55.000000
9.649887 51.000000
9.669369 42.000000
9.688852 67.000000
9.708334 54.000000
9.727816 60.000000
9.747299 47.000000
9.766781 55.000000
9.786264 51.000000
9.805746 59.000000
9.825228 48.000000
9.844711 46.000000
9.864193 63.000000
9.883675 68.000000
9.903158 59.000000
9.922640 55.000000
9.942123 51.000000
9.961605 60.000000
9.981087 62.000000
10.000570 65.000000
10.020052 57.000000
10.039534 54.000000
10.059017 55.000000
10.078499 61.000000
10.097982 51.000000
10.117464 62.000000
10.136946 49.000000
10.156429 61.000000
10.175911 60.000000
10.195393 54.000000
10.214876 61.000000
10.234358 60.000000
10.253840 54.000000
10.273323 58.000000
10.292805 39.000000
10.312288 49.000000
10.331770 62.000000
10.351252 62.000000
10.370735 45.000000
10.390217 67.000000
10.409699 56.000000
10.429182 69.000000
10.448664 50.000000
10.468147 57.000000
10.487629 54.000000
10.507111 48.000000
10.526594 56.000000
10.546076 43.000000
10.565558 54.000000
10.585041 56.000000
10.604523 71.000000
10.624005 51.000000
10.643488 63.000000
10.662970 54.000000
10.682453 50.000000
10.701935 49.000000
10.721417 68.000000
10.740900 46.000000
10.760382 51.000000
10.779864 60.000000
10.799347 57.000000
10.818829 61.000000
10.838312 54.000000
10.857794 72.000000
10.877276 50.000000
10.896759 64.000000
10.916241 62.000000
10.935723 52.000000
10.955206 55.000000
10.974688 53.000000
10.994170 64.000000
11.013653 61.000000
11.033135 69.000000
11.052618 66.000000
11.072100 67.000000
11.091582 58.000000
11.111065 62.000000
11.130547 53.000000
11.150029 45.000000
11.169512 38.000000
11.188994 47.000000
11.208477 56.000000
11.227959 57.000000
11.247441 45.000000
11.266924 68.000000
11.286406 59.000000
11.305888 56.000000
11.325371 61.000000
11.344853 56.000000
11.364335 57.000000
11.383818 65.000000
11.403300 50.000000
11.422783 51.000000
11.442265 51.000000
11.461747 53.000000
11.481230 61.000000
11.500712 62.000000
11.520194 45.000000
11.539677 56.000000
11.559159 47.000000
11.578642 67.000000
11.598124 67.000000
11.617606 53.000000
11.637089 46.000000
11.656571 58.000000
11.676053 48.000000
11.695536 57.000000
11.715018 66.000000
11.734500 53.000000
11.753983 54.000000
11.773465 55.000000
11.792948 54.000000
11.812430 63.000000
11.831912 56.000000
11.851395 58.000000
11.870877 52.000000
11.890359 53.000000
11.909842 65.000000
11.929324 47.000000
11.948807 52.000000
11.968289 56.000000
11.987771 52.000000
12.007254 62.000000
12.026736 63.000000
12.046218 59.000000
12.065701 58.000000
12.085183 50.000000
12.104666 64.000000
12.124148 43.000000
12.143630 70.000000
12.163113 49.000000
12.182595 57.000000
12.202077 70.000000
12.221560 62.000000
12.241042 57.000000
12.260524 64.000000
12.280007 55.000000
12.299489 53.000000
12.318972 51.000000
12.338454 52.000000
12.357936 46.000000
12.377419 57.000000
12.396901 58.000000
12.416383 47.000000
12.435866 71.000000
12.455348 56.000000
12.474831 67.000000
12.494313 62.000000
12.513795 52.000000
12.533278 66.000000
12.552760 51.000000
12.572242 49.000000
12.591725 63.000000
12.611207 54.000000
12.630689 59.000000
12.650172 55.000000
12.669654 59.000000
12.689137 55.000000
12.708619 59.000000
12.728101 63.000000
12.747584 66.000000
12.767066 55.000000
12.786548 59.000000
12.806031 54.000000
12.825513 45.000000
12.844996 56.000000
12.864478 63.000000
12.883960 46.000000
12.903443 57.000000
12.922925 66.000000
12.942407 62.000000
12.961890 54.000000
12.981372 63.000000
13.000854 68.000000
13.020337 57.000000
13.039819 55.000000
13.059302 49.000000
13.078784 51.000000
13.098266 53.000000
13.117749 67.000000
13.137231 54.000000
13.156713 59.000000
13.176196 58.000000
13.195678 45.000000
13.215161 58.000000
13.234643 57.000000
13.254125 56.000000
13.273608 51.000000
13.293090 51.000000
13.312572 72.000000
13.332055 48.000000
13.351537 55.000000
13.371019 54.000000
13.390502 50.000000
13.409984 50.000000
13.429467 59.000000
13.448949 47.000000
13.468431 67.000000
13.487914 45.000000
13.507396 51.000000
13.526878 60.000000
13.546361 57.000000
13.565843 61.000000
13.585326 64.000000
13.604808 57.000000
13.624290 57.000000
13.643773 52.000000
13.663255 57.000000
13.682737 67.000000
13.702220 54.000000
13.721702 50.000000
13.741185 54.000000
13.760667 70.000000
13.780149 58.000000
13.799632 62.000000
13.819114 59.000000
13.838596 53.000000
13.858079 66.000000
13.877561 59.000000
13.897043 61.000000
13.916526 62.000000
13.936008 58.000000
13.955491 56.000000
13.974973 68.000000
13.994455 78.000000
14.013938 56.000000
14.033420 53.000000
14.052902 88.000000
14.072385 53.000000
14.091867 52.000000
14.111350 77.000000
14.130832 48.000000
14.150314 59.000000
14.169797 61.000000
14.189279 56.000000
14.208761 46.000000
14.228244 49.000000
14.247726 62.000000
14.267208 58.000000
14.286691 59.000000
14.306173 52.000000
14.325656 55.000000
14.345138 51.000000
14.364620 54.000000
14.384103 59.000000
14.403585 67.000000
14.423067 40.000000
14.442550 41.000000
14.462032 71.000000
14.481515 50.000000
14.500997 64.000000
14.520479 69.000000
14.539962 52.000000
14.559444 58.000000
14.578926 58.000000
14.598409 51.000000
14.617891 56.000000
14.637373 55.000000
14.656856 53.000000
14.676338 67.000000
14.695821 59.000000
14.715303 51.000000
14.734785 45.000000
14.754268 44.000000
14.773750 52.000000
14.793232 43.000000
14.812715 53.000000
14.832197 44.000000
14.851680 56.000000
14.871162 55.000000
14.890644 58.000000
14.910127 52.000000
14.929609 59.000000
14.949091 59.000000
14.968574 57.000000
14.988056 45.000000
15.007538 60.000000
15.027021 41.000000
15.046503 68.000000
15.065986 70.000000
15.085468 53.000000
15.104950 55.000000
15.124433 54.000000
15.143915 74.000000
15.163397 55.000000
15.182880 52.000000
15.202362 60.000000
15.221845 63.000000
15.241327 51.000000
15.260809 69.000000
15.280292 46.000000
15.299774 60.000000
15.319256 57.000000
15.338739 60.000000
15.358221 66.000000
15.377704 58.000000
15.397186 58.000000
15.416668 58.000000
15.436151 67.000000
15.455633 55.000000
15.475115 59.000000
15.494598 51.000000
15.514080 53.000000
15.533562 62.000000
15.553045 45.000000
15.572527 49.000000
15.592010 49.000000
15.611492 57.000000
15.630974 64.000000
15.650457 54.000000
15.669939 54.000000
15.689421 62.000000
15.708904 68.000000
15.728386 56.000000
15.747869 47.000000
15.767351 60.000000
15.786833 64.000000
15.806316 61.000000
15.825798 57.000000
15.845280 62.000000
15.864763 58.000000
15.884245 69.000000
15.903727 55.000000
15.923210 61.000000
15.942692 59.000000
15.962175 63.000000
15.981657 55.000000
16.001139 48.000000
16.020622 69.000000
16.040104 49.000000
16.059586 55.000000
16.079069 53.000000
16.098551 47.000000
16.118034 52.000000
16.137516 59.000000
16.156998 46.000000
16.176481 58.000000
16.195963 62.000000
16.215445 72.000000
16.234928 59.000000
16.254410 57.000000
16.273892 46.000000
16.293375 53.000000
16.312857 56.000000
16.332340 55.000000
16.351822 59.000000
16.371304 58.000000
16.390787 48.000000
16.410269 61.000000
16.429751 56.000000
16.449234 47.000000
16.468716 59.000000
16.488199 62.000000
16.507681 56.000000
16.527163 52.000000
16.546646 51.000000
16.566128 57.000000
16.585610 53.000000
16.605093 66.000000
16.624575 63.000000
16.644057 58.000000
16.663540 57.000000
16.683022 74.000000
16.702505 53.000000
16.721987 56.000000
16.741469 61.000000
16.760952 48.000000
16.780434 62.000000
16.799916 51.000000
16.819399 58.000000
16.838881 58.000000
16.858364 65.000000
16.877846 63.000000
16.897328 52.000000
16.916811 52.000000
16.936293 57.000000
16.955775 46.000000
16.975258 53.000000
16.994740 62.000000
17.014222 56.000000
17.033705 60.000000
17.053187 61.000000
17.072670 57.000000
17.092152 52.000000
17.111634 52.000000
17.131117 44.000000
17.150599 56.000000
17.170081 62.000000
17.189564 50.000000
17.209046 54.000000
17.228529 51.000000
17.248011 46.000000
17.267493 55.000000
17.286976 52.000000
17.306458 44.000000
17.325940 44.000000
17.345423 52.000000
17.364905 65.000000
17.384388 53.000000
17.403870 53.000000
17.423352 58.000000
17.442835 57.000000
17.462317 57.000000
17.481799 56.000000
17.501282 68.000000
17.520764 55.000000
17.540246 49.000000
17.559729 50.000000
17.579211 58.000000
17.598694 67.000000
17.618176 56.000000
17.637658 57.000000
17.657141 61.000000
17.676623 62.000000
17.696105 51.000000
17.715588 61.000000
17.735070 45.000000
17.754553 67.000000
17.774035 77.000000
17.793517 51.000000
17.813000 63.000000
17.832482 62.000000
17.851964 52.000000
17.871447 55.000000
17.890929 48.000000
17.910411 63.000000
17.929894 50.000000
17.949376 54.000000
17.968859 47.000000
17.988341 42.000000
18.007823 45.000000
18.027306 50.000000
18.046788 59.000000
18.066270 52.000000
18.085753 44.000000
18.105235 56.000000
18.124718 58.000000
18.144200 48.000000
18.163682 53.000000
18.183165 53.000000
18.202647 77.000000
18.222129 55.000000
18.241612 44.000000
18.261094 67.000000
18.280576 58.000000
18.300059 58.000000
18.319541 59.000000
18.339024 64.000000
18.358506 54.000000
18.377988 49.000000
18.397471 59.000000
18.416953 52.000000
18.436435 56.000000
18.455918 56.000000
18.475400 51.000000
18.494883 55.000000
18.514365 60.000000
18.533847 72.000000
18.553330 49.000000
18.572812 55.000000
18.592294 44.000000
18.611777 54.000000
18.631259 69.000000
18.650741 62.000000
18.670224 49.000000
18.689706 51.000000
18.709189 62.000000
18.728671 45.000000
18.748153 46.000000
18.767636 59.000000
18.787118 49.000000
18.806600 66.000000
18.826083 60.000000
18.845565 47.000000
18.865048 60.000000
18.884530 58.000000
18.904012 59.000000
18.923495 50.000000
18.942977 57.000000
18.962459 63.000000
18.981942 56.000000
19.001424 55.000000
19.020907 52.000000
19.040389 46.000000
19.059871 49.000000
19.079354 48.000000
19.098836 48.000000
19.118318 53.000000
19.137801 50.000000
19.157283 59.000000
19.176765 65.000000
19.196248 51.000000
19.215730 63.000000
19.235213 54.000000
19.254695 63.000000
19.274177 60.000000
19.293660 51.000000
19.313142 49.000000
19.332624 51.000000
19.352107 58.000000
19.371589 52.000000
19.391072 51.000000
19.410554 49.000000
19.430036 52.000000
19.449519 62.000000
19.469001 60.000000
19.488483 66.000000
19.507966 50.000000
19.527448 65.000000
19.546930 52.000000
19.566413 50.000000
19.585895 65.000000
19.605378 47.000000
19.624860 58.000000
19.644342 50.000000
19.663825 71.000000
19.683307 53.000000
19.702789 66.000000
19.722272 64.000000
19.741754 47.000000
19.761237 61.000000
19.780719 50.000000
19.800201 69.000000
19.819684 50.000000
19.839166 65.000000
19.858648 56.000000
19.878131 63.000000
19.897613 50.000000
19.917095 64.000000
19.936578 68.000000
19.956060 50.000000
19.975543 54.000000
19.995025 52.000000
20.014507 52.000000
20.033990 54.000000
20.053472 50.000000
20.072954 62.000000
20.092437 47.000000
20.111919 49.000000
20.131402 50.000000
20.150884 52.000000
20.170366 59.000000
20.189849 53.000000
20.209331 64.000000
20.228813 67.000000
20.248296 44.000000
20.267778 71.000000
20.287260 55.000000
20.306743 51.000000
20.326225 69.000000
20.345708 58.000000
20.365190 48.000000
20.384672 61.000000
20.404155 56.000000
20.423637 41.000000
20.443119 51.000000
20.462602 64.000000
20.482084 52.000000
20.501567 57.000000
20.521049 48.000000
20.540531 58.000000
20.560014 45.000000
20.579496 47.000000
20.598978 51.000000
20.618461 58.000000
20.637943 68.000000
20.657426 50.000000
20.676908 67.000000
20.696390 52.000000
20.715873 54.000000
20.735355 54.000000
20.754837 50.000000
20.774320 33.000000
20.793802 58.000000
20.813284 75.000000
20.832767 52.000000
20.852249 57.000000
20.871732 59.000000
20.891214 57.000000
20.910696 53.000000
20.930179 51.000000
20.949661 45.000000
20.969143 58.000000
20.988626 50.000000
21.008108 66.000000
21.027591 56.000000
21.047073 56.000000
21.066555 56.000000
21.086038 43.000000
21.105520 62.000000
21.125002 46.000000
21.144485 54.000000
21.163967 64.000000
21.183449 63.000000
21.202932 50.000000
21.222414 57.000000
21.241897 37.000000
21.261379 58.000000
21.280861 60.000000
21.300344 57.000000
21.319826 59.000000
21.339308 44.000000
21.358791 64.000000
21.378273 56.000000
21.397756 54.000000
21.417238 61.000000
21.436720 77.000000
21.456203 60.000000
21.475685 56.000000
21.495167 51.000000
21.514650 58.000000
21.534132 60.000000
21.553614 64.000000
21.573097 66.000000
21.592579 67.000000
21.612062 47.000000
21.631544 51.000000
21.651026 62.000000
21.670509 41.000000
21.689991 61.000000
21.709473 46.000000
21.728956 64.000000
21.748438 67.000000
21.767921 64.000000
21.787403 64.000000
21.806885 48.000000
21.826368 52.000000
21.845850 52.000000
21.865332 57.000000
21.884815 56.000000
21.904297 56.000000
21.923779 67.000000
21.943262 46.000000
21.962744 49.000000
21.982227 44.000000
22.001709 58.000000
22.021191 56.000000
22.040674 50.000000
22.060156 46.000000
22.079638 55.000000
22.099121 64.000000
22.118603 56.000000
22.138086 70.000000
22.157568 53.000000
22.177050 66.000000
22.196533 52.000000
22.216015 39.000000
22.235497 76.000000
22.254980 58.000000
22.274462 52.000000
22.293945 54.000000
22.313427 52.000000
22.332909 53.000000
22.352392 46.000000
22.371874 59.000000
22.391356 61.000000
22.410839 60.000000
22.430321 43.000000
22.449803 52.000000
22.469286 54.000000
22.488768 57.000000
22.508251 71.000000
22.527733 53.000000
22.547215 58.000000
22.566698 52.000000
22.586180 54.000000
22.605662 70.000000
22.625145 51.000000
22.644627 51.000000
22.664110 44.000000
22.683592 60.000000
22.703074 54.000000
22.722557 62.000000
22.742039 57.000000
22.761521 51.000000
22.781004 56.000000
22.800486 53.000000
22.819968 63.000000
22.839451 64.000000
22.858933 60.000000
22.878416 56.000000
22.897898 66.000000
22.917380 51.000000
22.936863 62.000000
22.956345 48.000000
22.975827 59.000000
22.995310 62.000000
23.014792 47.000000
23.034275 53.000000
23.053757 61.000000
23.073239 58.000000
23.092722 59.000000
23.112204 66.000000
23.131686 52.000000
23.151169 64.000000
23.170651 47.000000
23.190133 59.000000
23.209616 59.000000
23.229098 65.000000
23.248581 49.000000
23.268063 49.000000
23.287545 52.000000
23.307028 65.000000
23.326510 52.000000
23.345992 44.000000
23.365475 58.000000
23.384957 48.000000
23.404440 51.000000
23.423922 40.000000
23.443404 50.000000
23.462887 56.000000
23.482369 43.000000
23.501851 56.000000
23.521334 66.000000
23.540816 52.000000
23.560298 59.000000
23.579781 63.000000
23.599263 65.000000
23.618746 62.000000
23.638228 50.000000
23.657710 48.000000
23.677193 34.000000
23.696675 48.000000
23.716157 63.000000
23.735640 58.000000
23.755122 64.000000
23.774605 55.000000
23.794087 65.000000
23.813569 63.000000
23.833052 51.000000
23.852534 56.000000
23.872016 71.000000
23.891499 62.000000
23.910981 56.000000
23.930463 61.000000
23.949946 72.000000
23.969428 50.000000
23.988911 50.000000
24.008393 57.000000
24.027875 48.000000
24.047358 57.000000
24.066840 54.000000
24.086322 55.000000
24.105805 55.000000
24.125287 46.000000
24.144770 61.000000
24.164252 70.000000
24.183734 54.000000
24.203217 76.000000
24.222699 48.000000
24.242181 47.000000
24.261664 44.000000
24.281146 61.000000
24.300629 45.000000
24.320111 53.000000
24.339593 53.000000
24.359076 53.000000
24.378558 48.000000
24.398040 69.000000
24.417523 54.000000
24.437005 55.000000
24.456487 55.000000
24.475970 64.000000
24.495452 52.000000
24.514935 55.000000
24.534417 49.000000
24.553899 64.000000
24.573382 67.000000
24.592864 70.000000
24.612346 67.000000
24.631829 58.000000
24.651311 49.000000
24.670794 57.000000
24.690276 71.000000
24.709758 56.000000
24.729241 57.000000
24.748723 68.000000
24.768205 53.000000
24.787688 51.000000
24.807170 41.000000
24.826652 46.000000
24.846135 53.000000
24.865617 51.000000
24.885100 55.000000
24.904582 54.000000
24.924064 58.000000
24.943547 58.000000
24.963029 70.000000
24.982511 58.000000
25.001994 66.000000
25.021476 53.000000
25.040959 68.000000
25.060441 50.000000
25.079923 67.000000
25.099406 70.000000
25.118888 67.000000
25.138370 47.000000
25.157853 57.000000
25.177335 77.000000
25.196817 41.000000
25.216300 69.000000
25.235782 69.000000
25.255265 64.000000
25.274747 61.000000
25.294229 53.000000
25.313712 62.000000
25.333194 53.000000
25.352676 68.000000
25.372159 60.000000
25.391641 49.000000
25.411124 58.000000
25.430606 72.000000
25.450088 58.000000
25.469571 49.000000
25.489053 50.000000
25.508535 62.000000
25.528018 63.000000
25.547500 45.000000
25.566982 58.000000
25.586465 57.000000
25.605947 61.000000
25.625430 48.000000
25.644912 49.000000
25.664394 60.000000
25.683877 50.000000
25.703359 41.000000
25.722841 39.000000
25.742324 47.000000
25.761806 46.000000
25.781289 48.000000
25.800771 55.000000
25.820253 48.000000
25.839736 58.000000
25.859218 58.000000
25.878700 56.000000
25.898183 53.000000
25.917665 60.000000
25.937148 58.000000
25.956630 54.000000
25.976112 73.000000
25.995595 56.000000
26.015077 57.000000
26.034559 45.000000
26.054042 56.000000
26.073524 60.000000
26.093006 60.000000
26.112489 51.000000
26.131971 67.000000
26.151454 61.000000
26.170936 56.000000
26.190418 58.000000
26.209901 51.000000
26.229383 52.000000
26.248865 58.000000
26.268348 46.000000
26.287830 48.000000
26.307313 56.000000
26.326795 56.000000
26.346277 75.000000
26.365760 58.000000
26.385242 55.000000
26.404724 60.000000
26.424207 63.000000
26.443689 61.000000
26.463171 62.000000
26.482654 51.000000
26.502136 46.000000
26.521619 60.000000
26.541101 59.000000
26.560583 63.000000
26.580066 57.000000
26.599548 61.000000
26.619030 50.000000
26.638513 60.000000
26.657995 54.000000
26.677478 61.000000
26.696960 66.000000
26.716442 62.000000
26.735925 54.000000
26.755407 40.000000
26.774889 61.000000
26.794372 66.000000
26.813854 58.000000
26.833336 48.000000
26.852819 58.000000
26.872301 60.000000
26.891784 69.000000
26.911266 50.000000
26.930748 60.000000
26.950231 58.000000
26.969713 49.000000
26.989195 50.000000
27.008678 53.000000
27.028160 52.000000
27.047643 49.000000
27.067125 64.000000
27.086607 35.000000
27.106090 55.000000
27.125572 52.000000
27.145054 67.000000
27.164537 61.000000
27.184019 49.000000
27.203501 52.000000
27.222984 62.000000
27.242466 55.000000
27.261949 63.000000
27.281431 55.000000
27.300913 50.000000
27.320396 69.000000
27.339878 56.000000
27.359360 73.000000
27.378843 41.000000
27.398325 55.000000
27.417808 60.000000
27.437290 55.000000
27.456772 44.000000
27.476255 58.000000
27.495737 60.000000
27.515219 60.000000
27.534702 50.000000
27.554184 49.000000
27.573667 66.000000
27.593149 52.000000
27.612631 63.000000
27.632114 62.000000
27.651596 59.000000
27.671078 69.000000
27.690561 64.000000
27.710043 49.000000
27.729525 60.000000
27.749008 65.000000
27.768490 68.000000
27.787973 56.000000
27.807455 76.000000
27.826937 65.000000
27.846420 52.000000
27.865902 65.000000
27.885384 69.000000
27.904867 65.000000
27.924349 57.000000
27.943832 57.000000
27.963314 53.000000
27.982796 63.000000
28.002279 51.000000
28.021761 70.000000
28.041243 56.000000
28.060726 54.000000
28.080208 63.000000
28.099690 45.000000
28.119173 61.000000
28.138655 54.000000
28.158138 57.000000
28.177620 63.000000
28.197102 52.000000
28.216585 68.000000
28.236067 48.000000
28.255549 66.000000
28.275032 64.000000
28.294514 70.000000
28.313997 69.000000
28.333479 57.000000
28.352961 62.000000
28.372444 66.000000
28.391926 52.000000
28.411408 59.000000
28.430891 58.000000
28.450373 64.000000
28.469855 72.000000
28.489338 182.000000
28.508820 145.000000
28.528303 118.000000
28.547785 94.000000
28.567267 117.000000
28.586750 119.000000
28.606232 67.000000
28.625714 60.000000
28.645197 60.000000
28.664679 78.000000
28.684162 50.000000
28.703644 57.000000
28.723126 72.000000
28.742609 67.000000
28.762091 48.000000
28.781573 70.000000
28.801056 47.000000
28.820538 64.000000
28.840020 69.000000
28.859503 57.000000
28.878985 58.000000
28.898468 63.000000
28.917950 79.000000
28.937432 63.000000
28.956915 62.000000
28.976397 72.000000
28.995879 55.000000
29.015362 63.000000
29.034844 67.000000
29.054327 66.000000
29.073809 52.000000
29.093291 55.000000
29.112774 59.000000
29.132256 53.000000
29.151738 56.000000
29.171221 56.000000
29.190703 53.000000
29.210185 50.000000
29.229668 56.000000
29.249150 61.000000
29.268633 68.000000
29.288115 55.000000
29.307597 64.000000
29.327080 51.000000
29.346562 56.000000
29.366044 53.000000
29.385527 67.000000
29.405009 63.000000
29.424492 57.000000
29.443974 72.000000
29.463456 66.000000
29.482939 58.000000
29.502421 60.000000
29.521903 67.000000
29.541386 63.000000
29.560868 66.000000
29.580351 60.000000
29.599833 66.000000
29.619315 59.000000
29.638798 56.000000
29.658280 58.000000
29.677762 54.000000
29.697245 51.000000
29.716727 49.000000
29.736209 61.000000
29.755692 56.000000
29.775174 57.000000
29.794657 53.000000
29.814139 66.000000
29.833621 58.000000
29.853104 65.000000
29.872586 53.000000
29.892068 59.000000
29.911551 54.000000
29.931033 58.000000
29.950516 64.000000
29.969998 53.000000
29.989480 64.000000
30.008963 60.000000
30.028445 54.000000
30.047927 66.000000
30.067410 57.000000
30.086892 54.000000
30.106374 46.000000
30.125857 63.000000
30.145339 60.000000
30.164822 65.000000
30.184304 42.000000
30.203786 70.000000
30.223269 51.000000
30.242751 56.000000
30.262233 63.000000
30.281716 52.000000
30.301198 60.000000
30.320681 75.000000
30.340163 52.000000
30.359645 69.000000
30.379128 53.000000
30.398610 66.000000
30.418092 66.000000
30.437575 50.000000
30.457057 62.000000
30.476539 69.000000
30.496022 55.000000
30.515504 66.000000
30.534987 63.000000
30.554469 53.000000
30.573951 45.000000
30.593434 46.000000
30.612916 63.000000
30.632398 54.000000
30.651881 55.000000
30.671363 53.000000
30.690846 57.000000
30.710328 60.000000
30.729810 54.000000
30.749293 59.000000
30.768775 66.000000
30.788257 63.000000
30.807740 58.000000
30.827222 53.000000
30.846704 66.000000
30.866187 60.000000
30.885669 61.000000
30.905152 46.000000
30.924634 84.000000
30.944116 63.000000
30.963599 58.000000
30.983081 49.000000
31.002563 66.000000
31.022046 64.000000
31.041528 58.000000
31.061011 58.000000
31.080493 50.000000
31.099975 50.000000
31.119458 61.000000
31.138940 51.000000
31.158422 58.000000
31.177905 54.000000
31.197387 56.000000
31.216870 51.000000
31.236352 57.000000
31.255834 45.000000
31.275317 64.000000
31.294799 51.000000
31.314281 53.000000
31.333764 68.000000
31.353246 64.000000
31.372728 69.000000
31.392211 61.000000
31.411693 60.000000
31.431176 54.000000
31.450658 68.000000
31.470140 66.000000
31.489623 58.000000
31.509105 59.000000
31.528587 53.000000
31.548070 55.000000
31.567552 64.000000
31.587035 50.000000
31.606517 52.000000
31.625999 44.000000
31.645482 57.000000
31.664964 68.000000
31.684446 63.000000
31.703929 59.000000
31.723411 68.000000
31.742893 50.000000
31.762376 61.000000
31.781858 55.000000
31.801341 57.000000
31.820823 62.000000
31.840305 59.000000
31.859788 42.000000
31.879270 56.000000
31.898752 50.000000
31.918235 58.000000
31.937717 45.000000
31.957200 62.000000
31.976682 47.000000
31.996164 57.000000
32.015647 59.000000
32.035129 60.000000
32.054611 65.000000
32.074094 49.000000
32.093576 70.000000
32.113058 71.000000
32.132541 62.000000
32.152023 50.000000
32.171506 52.000000
32.190988 60.000000
32.210470 58.000000
32.229953 51.000000
32.249435 47.000000
32.268917 67.000000
32.288400 60.000000
32.307882 59.000000
32.327365 61.000000
32.346847 56.000000
32.366329 68.000000
32.385812 43.000000
32.405294 68.000000
32.424776 58.000000
32.444259 61.000000
32.463741 79.000000
32.483223 61.000000
32.502706 58.000000
32.522188 59.000000
32.541671 65.000000
32.561153 60.000000
32.580635 54.000000
32.600118 47.000000
32.619600 67.000000
32.639082 59.000000
32.658565 73.000000
32.678047 54.000000
32.697530 60.000000
32.717012 52.000000
32.736494 66.000000
32.755977 54.000000
32.775459 62.000000
32.794941 51.000000
32.814424 67.000000
32.833906 60.000000
32.853389 60.000000
32.872871 47.000000
32.892353 54.000000
32.911836 53.000000
32.931318 68.000000
32.950800 63.000000
32.970283 71.000000
32.989765 108.000000
33.009247 184.000000
33.028730 279.000000
33.048212 289.000000
33.067695 204.000000
33.087177 134.000000
33.106659 169.000000
33.126142 190.000000
33.145624 140.000000
33.165106 90.000000
33.184589 63.000000
33.204071 70.000000
33.223554 57.000000
33.243036 61.000000
33.262518 65.000000
33.282001 79.000000
33.301483 51.000000
33.320965 62.000000
33.340448 74.000000
33.359930 74.000000
33.379412 54.000000
33.398895 71.000000
33.418377 63.000000
33.437860 62.000000
33.457342 56.000000
33.476824 66.000000
33.496307 54.000000
33.515789 51.000000
33.535271 65.000000
33.554754 74.000000
33.574236 62.000000
33.593719 60.000000
33.613201 86.000000
33.632683 55.000000
33.652166 36.000000
33.671648 50.000000
33.691130 62.000000
33.710613 59.000000
33.730095 70.000000
33.749577 61.000000
33.769060 55.000000
33.788542 69.000000
33.808025 67.000000
33.827507 50.000000
33.846989 65.000000
33.866472 47.000000
33.885954 60.000000
33.905436 53.000000
33.924919 60.000000
33.944401 49.000000
33.963884 70.000000
33.983366 62.000000
34.002848 54.000000
34.022331 50.000000
34.041813 53.000000
34.061295 62.000000
34.080778 60.000000
34.100260 53.000000
34.119742 69.000000
34.139225 49.000000
34.158707 57.000000
34.178190 71.000000
34.197672 63.000000
34.217154 64.000000
34.236637 66.000000
34.256119 64.000000
34.275601 55.000000
34.295084 53.000000
34.314566 51.000000
34.334049 72.000000
34.353531 51.000000
34.373013 62.000000
34.392496 72.000000
34.411978 59.000000
34.431460 59.000000
34.450943 58.000000
34.470425 59.000000
34.489908 45.000000
34.509390 57.000000
34.528872 58.000000
34.548355 48.000000
34.567837 55.000000
34.587319 67.000000
34.606802 54.000000
34.626284 51.000000
34.645766 50.000000
34.665249 54.000000
34.684731 66.000000
34.704214 57.000000
34.723696 61.000000
34.743178 51.000000
34.762661 57.000000
34.782143 59.000000
34.801625 57.000000
34.821108 50.000000
34.840590 63.000000
34.860073 44.000000
34.879555 60.000000
34.899037 70.000000
34.918520 73.000000
34.938002 56.000000
34.957484 56.000000
34.976967 69.000000
34.996449 62.000000
35.015931 66.000000
35.035414 55.000000
35.054896 60.000000
35.074379 50.000000
35.093861 59.000000
35.113343 59.000000
35.132826 48.000000
35.152308 64.000000
35.171790 55.000000
35.191273 53.000000
35.210755 59.000000
35.230238 52.000000
35.249720 75.000000
35.269202 52.000000
35.288685 70.000000
35.308167 66.000000
35.327649 66.000000
35.347132 54.000000
35.366614 59.000000
35.386096 48.000000
35.405579 65.000000
35.425061 59.000000
35.444544 45.000000
35.464026 62.000000
35.483508 55.000000
35.502991 65.000000
35.522473 65.000000
35.541955 62.000000
35.561438 60.000000
35.580920 58.000000
35.600403 61.000000
35.619885 61.000000
35.639367 55.000000
35.658850 66.000000
35.678332 59.000000
35.697814 68.000000
35.717297 50.000000
35.736779 65.000000
35.756261 49.000000
35.775744 64.000000
35.795226 45.000000
35.814709 54.000000
35.834191 61.000000
35.853673 67.000000
35.873156 67.000000
35.892638 71.000000
35.912120 50.000000
35.931603 58.000000
35.951085 53.000000
35.970568 67.000000
35.990050 58.000000
36.009532 60.000000
36.029015 65.000000
36.048497 60.000000
36.067979 66.000000
36.087462 64.000000
36.106944 61.000000
36.126426 57.000000
36.145909 63.000000
36.165391 66.000000
36.184874 54.000000
36.204356 47.000000
36.223838 62.000000
36.243321 64.000000
36.262803 63.000000
36.282285 57.000000
36.301768 73.000000
36.321250 53.000000
36.340733 55.000000
36.360215 57.000000
36.379697 69.000000
36.399180 67.000000
36.418662 61.000000
36.438144 59.000000
36.457627 69.000000
36.477109 53.000000
36.496592 56.000000
36.516074 60.000000
36.535556 54.000000
36.555039 49.000000
36.574521 58.000000
36.594003 61.000000
36.613486 53.000000
36.632968 78.000000
36.652450 55.000000
36.671933 62.000000
36.691415 75.000000
36.710898 47.000000
36.730380 67.000000
36.749862 62.000000
36.769345 54.000000
36.788827 63.000000
36.808309 66.000000
36.827792 61.000000
36.847274 42.000000
36.866757 68.000000
36.886239 59.000000
36.905721 53.000000
36.925204 59.000000
36.944686 53.000000
36.964168 61.000000
36.983651 65.000000
37.003133 62.000000
37.022615 87.000000
37.042098 147.000000
37.061580 175.000000
37.081063 211.000000
37.100545 138.000000
37.120027 114.000000
37.139510 89.000000
37.158992 120.000000
37.178474 118.000000
37.197957 87.000000
37.217439 64.000000
37.236922 73.000000
37.256404 54.000000
37.275886 68.000000
37.295369 63.000000
37.314851 58.000000
37.334333 55.000000
37.353816 60.000000
37.373298 48.000000
37.392780 57.000000
37.412263 63.000000
37.431745 70.000000
37.451228 62.000000
37.470710 50.000000
37.490192 61.000000
37.509675 55.000000
37.529157 58.000000
37.548639 58.000000
37.568122 62.000000
37.587604 53.000000
37.607087 53.000000
37.626569 51.000000
37.646051 58.000000
37.665534 53.000000
37.685016 81.000000
37.704498 55.000000
37.723981 69.000000
37.743463 64.000000
37.762945 64.000000
37.782428 54.000000
37.801910 49.000000
37.821393 57.000000
37.840875 48.000000
37.860357 52.000000
37.879840 59.000000
37.899322 49.000000
37.918804 60.000000
37.938287 70.000000
37.957769 66.000000
37.977252 61.000000
37.996734 50.000000
38.016216 59.000000
38.035699 58.000000
38.055181 72.000000
38.074663 56.000000
38.094146 60.000000
38.113628 75.000000
38.133111 56.000000
38.152593 51.000000
38.172075 62.000000
38.191558 50.000000
38.211040 67.000000
38.230522 65.000000
38.250005 68.000000
38.269487 73.000000
38.288969 64.000000
38.308452 57.000000
38.327934 63.000000
38.347417 61.000000
38.366899 65.000000
38.386381 48.000000
38.405864 56.000000
38.425346 60.000000
38.444828 60.000000
38.464311 66.000000
38.483793 62.000000
38.503276 54.000000
38.522758 66.000000
38.542240 58.000000
38.561723 67.000000
38.581205 63.000000
38.600687 58.000000
38.620170 59.000000
38.639652 52.000000
38.659134 67.000000
38.678617 75.000000
38.698099 61.000000
38.717582 60.000000
38.737064 52.000000
38.756546 54.000000
38.776029 53.000000
38.795511 57.000000
38.814993 52.000000
38.834476 69.000000
38.853958 63.000000
38.873441 71.000000
38.892923 56.000000
38.912405 62.000000
38.931888 70.000000
38.951370 62.000000
38.970852 49.000000
38.990335 66.000000
39.009817 52.000000
39.029299 61.000000
39.048782 62.000000
39.068264 62.000000
39.087747 67.000000
39.107229 67.000000
39.126711 65.000000
39.146194 71.000000
39.165676 60.000000
39.185158 57.000000
39.204641 78.000000
39.224123 46.000000
39.243606 69.000000
39.263088 52.000000
39.282570 50.000000
39.302053 54.000000
39.321535 68.000000
39.341017 54.000000
39.360500 58.000000
39.379982 73.000000
39.399464 53.000000
39.418947 68.000000
39.438429 50.000000
39.457912 65.000000
39.477394 53.000000
39.496876 67.000000
39.516359 62.000000
39.535841 55.000000
39.555323 79.000000
39.574806 64.000000
39.594288 72.000000
39.613771 67.000000
39.633253 54.000000
39.652735 51.000000
39.672218 45.000000
39.691700 64.000000
39.711182 53.000000
39.730665 55.000000
39.750147 66.000000
39.769630 79.000000
39.789112 72.000000
39.808594 59.000000
39.828077 63.000000
39.847559 59.000000
39.867041 65.000000
39.886524 57.000000
39.906006 52.000000
39.925488 60.000000
39.944971 63.000000
39.964453 60.000000
39.983936 69.000000
40.003418 44.000000
40.022900 45.000000
40.042383 60.000000
40.061865 62.000000
40.081347 54.000000
40.100830 61.000000
40.120312 68.000000
40.139795 60.000000
40.159277 68.000000
40.178759 73.000000
40.198242 72.000000
40.217724 68.000000
40.237206 71.000000
40.256689 63.000000
40.276171 67.000000
40.295653 74.000000
40.315136 55.000000
40.334618 49.000000
40.354101 72.000000
40.373583 72.000000
40.393065 68.000000
40.412548 71.000000
40.432030 67.000000
40.451512 67.000000
40.470995 58.000000
40.490477 69.000000
40.509960 60.000000
40.529442 66.000000
40.548924 66.000000
40.568407 63.000000
40.587889 76.000000
40.607371 75.000000
40.626854 67.000000
40.646336 51.000000
40.665818 55.000000
40.685301 64.000000
40.704783 103.000000
40.724266 101.000000
40.743748 150.000000
40.763230 177.000000
40.782713 154.000000
40.802195 99.000000
40.821677 90.000000
40.841160 99.000000
40.860642 112.000000
40.880125 115.000000
40.899607 103.000000
40.919089 89.000000
40.938572 66.000000
40.958054 51.000000
40.977536 61.000000
40.997019 63.000000
41.016501 64.000000
41.035983 57.000000
41.055466 67.000000
41.074948 57.000000
41.094431 63.000000
41.113913 53.000000
41.133395 60.000000
41.152878 71.000000
41.172360 67.000000
41.191842 71.000000
41.211325 64.000000
41.230807 64.000000
41.250290 58.000000
41.269772 63.000000
41.289254 77.000000
41.308737 67.000000
41.328219 48.000000
41.347701 52.000000
41.367184 60.000000
41.386666 59.000000
41.406149 56.000000
41.425631 67.000000
41.445113 55.000000
41.464596 67.000000
41.484078 59.000000
41.503560 57.000000
41.523043 65.000000
41.542525 73.000000
41.562007 67.000000
41.581490 54.000000
41.600972 82.000000
41.620455 58.000000
41.639937 46.000000
41.659419 63.000000
41.678902 48.000000
41.698384 54.000000
41.717866 41.000000
41.737349 60.000000
41.756831 63.000000
41.776314 57.000000
41.795796 56.000000
41.815278 59.000000
41.834761 52.000000
41.854243 61.000000
41.873725 68.000000
41.893208 61.000000
41.912690 61.000000
41.932172 56.000000
41.951655 65.000000
41.971137 58.000000
41.990620 60.000000
42.010102 55.000000
42.029584 62.000000
42.049067 67.000000
42.068549 50.000000
42.088031 62.000000
42.107514 46.000000
42.126996 57.000000
42.146479 66.000000
42.165961 73.000000
42.185443 62.000000
42.204926 50.000000
42.224408 75.000000
42.243890 55.000000
42.263373 70.000000
42.282855 49.000000
42.302337 51.000000
42.321820 67.000000
42.341302 63.000000
42.360785 57.000000
42.380267 75.000000
42.399749 58.000000
42.419232 58.000000
42.438714 66.000000
42.458196 65.000000
42.477679 70.000000
42.497161 65.000000
42.516644 53.000000
42.536126 66.000000
42.555608 65.000000
42.575091 69.000000
42.594573 55.000000
42.614055 52.000000
42.633538 73.000000
42.653020 58.000000
42.672502 59.000000
42.691985 49.000000
42.711467 54.000000
42.730950 53.000000
42.750432 51.000000
42.769914 57.000000
42.789397 65.000000
42.808879 68.000000
42.828361 65.000000
42.847844 52.000000
42.867326 62.000000
42.886809 82.000000
42.906291 63.000000
42.925773 57.000000
42.945256 70.000000
42.964738 72.000000
42.984220 50.000000
43.003703 70.000000
43.023185 43.000000
43.042667 52.000000
43.062150 62.000000
43.081632 55.000000
43.101115 62.000000
43.120597 63.000000
43.140079 76.000000
43.159562 63.000000
43.179044 47.000000
43.198526 69.000000
43.218009 68.000000
43.237491 62.000000
43.256974 56.000000
43.276456 57.000000
43.295938 69.000000
43.315421 79.000000
43.334903 47.000000
43.354385 59.000000
43.373868 49.000000
43.393350 67.000000
43.412833 63.000000
43.432315 63.000000
43.451797 52.000000
43.471280 57.000000
43.490762 70.000000
43.510244 75.000000
43.529727 71.000000
43.549209 83.000000
43.568691 56.000000
43.588174 75.000000
43.607656 61.000000
43.627139 55.000000
43.646621 76.000000
43.666103 63.000000
43.685586 56.000000
43.705068 67.000000
43.724550 68.000000
43.744033 61.000000
43.763515 62.000000
43.782998 58.000000
43.802480 71.000000
43.821962 54.000000
43.841445 62.000000
43.860927 70.000000
43.880409 62.000000
43.899892 69.000000
43.919374 54.000000
43.938856 72.000000
43.958339 66.000000
43.977821 63.000000
43.997304 59.000000
44.016786 69.000000
44.036268 66.000000
44.055751 52.000000
44.075233 66.000000
44.094715 50.000000
44.114198 53.000000
44.133680 62.000000
44.153163 58.000000
44.172645 71.000000
44.192127 60.000000
44.211610 66.000000
44.231092 56.000000
44.250574 69.000000
44.270057 74.000000
44.289539 58.000000
44.309021 57.000000
44.328504 47.000000
44.347986 60.000000
44.367469 52.000000
44.386951 65.000000
44.406433 65.000000
44.425916 80.000000
44.445398 59.000000
44.464880 63.000000
44.484363 76.000000
44.503845 60.000000
44.523328 62.000000
44.542810 58.000000
44.562292 58.000000
44.581775 66.000000
44.601257 51.000000
44.620739 71.000000
44.640222 69.000000
44.659704 66.000000
44.679186 61.000000
44.698669 53.000000
44.718151 68.000000
44.737634 60.000000
44.757116 62.000000
44.776598 66.000000
44.796081 62.000000
44.815563 50.000000
44.835045 60.000000
44.854528 69.000000
44.874010 57.000000
44.893493 55.000000
44.912975 56.000000
44.932457 65.000000
44.951940 63.000000
44.971422 74.000000
44.990904 59.000000
45.010387 78.000000
45.029869 60.000000
45.049352 64.000000
45.068834 63.000000
45.088316 71.000000
45.107799 89.000000
45.127281 73.000000
45.146763 54.000000
45.166246 75.000000
45.185728 68.000000
45.205210 62.000000
45.224693 62.000000
45.244175 70.000000
45.263658 62.000000
45.283140 62.000000
45.302622 78.000000
45.322105 69.000000
45.341587 70.000000
45.361069 58.000000
45.380552 65.000000
45.400034 62.000000
45.419517 67.000000
45.438999 55.000000
45.458481 53.000000
45.477964 64.000000
45.497446 53.000000
45.516928 75.000000
45.536411 50.000000
45.555893 51.000000
45.575375 70.000000
45.594858 54.000000
45.614340 70.000000
45.633823 66.000000
45.653305 75.000000
45.672787 73.000000
45.692270 61.000000
45.711752 57.000000
45.731234 61.000000
45.750717 67.000000
45.770199 55.000000
45.789682 61.000000
45.809164 69.000000
45.828646 63.000000
45.848129 61.000000
45.867611 50.000000
45.887093 76.000000
45.906576 66.000000
45.926058 67.000000
45.945540 72.000000
45.965023 69.000000
45.984505 55.000000
46.003988 61.000000
46.023470 73.000000
46.042952 49.000000
46.062435 59.000000
46.081917 55.000000
46.101399 70.000000
46.120882 75.000000
46.140364 73.000000
46.159847 64.000000
46.179329 65.000000
46.198811 76.000000
46.218294 64.000000
46.237776 69.000000
46.257258 61.000000
46.276741 62.000000
46.296223 50.000000
46.315705 71.000000
46.335188 59.000000
46.354670 62.000000
46.374153 66.000000
46.393635 65.000000
46.413117 69.000000
46.432600 48.000000
46.452082 50.000000
46.471564 65.000000
46.491047 56.000000
46.510529 64.000000
46.530012 61.000000
46.549494 61.000000
46.568976 71.000000
46.588459 70.000000
46.607941 62.000000
46.627423 63.000000
46.646906 55.000000
46.666388 63.000000
46.685871 51.000000
46.705353 68.000000
46.724835 76.000000
46.744318 67.000000
46.763800 71.000000
46.783282 46.000000
46.802765 76.000000
46.822247 88.000000
46.841729 56.000000
46.861212 59.000000
46.880694 65.000000
46.900177 57.000000
46.919659 65.000000
46.939141 64.000000
46.958624 63.000000
46.978106 54.000000
46.997588 68.000000
47.017071 58.000000
47.036553 70.000000
47.056036 62.000000
47.075518 48.000000
47.095000 67.000000
47.114483 61.000000
47.133965 75.000000
47.153447 60.000000
47.172930 60.000000
47.192412 62.000000
47.211894 64.000000
47.231377 85.000000
47.250859 58.000000
47.270342 68.000000
47.289824 62.000000
47.309306 56.000000
47.328789 67.000000
47.348271 73.000000
47.367753 82.000000
47.387236 104.000000
47.406718 122.000000
47.426201 155.000000
47.445683 130.000000
47.465165 92.000000
47.484648 72.000000
47.504130 78.000000
47.523612 91.000000
47.543095 117.000000
47.562577 106.000000
47.582059 101.000000
47.601542 52.000000
47.621024 87.000000
47.640507 76.000000
47.659989 65.000000
47.679471 70.000000
47.698954 58.000000
47.718436 59.000000
47.737918 71.000000
47.757401 70.000000
47.776883 69.000000
47.796366 67.000000
47.815848 51.000000
47.835330 61.000000
47.854813 68.000000
47.874295 72.000000
47.893777 69.000000
47.913260 60.000000
47.932742 76.000000
47.952224 63.000000
47.971707 62.000000
47.991189 75.000000
48.010672 67.000000
48.030154 79.000000
48.049636 60.000000
48.069119 84.000000
48.088601 64.000000
48.108083 61.000000
48.127566 65.000000
48.147048 68.000000
48.166531 61.000000
48.186013 61.000000
48.205495 53.000000
48.224978 64.000000
48.244460 77.000000
48.263942 55.000000
48.283425 66.000000
48.302907 63.000000
48.322389 75.000000
48.341872 76.000000
48.361354 53.000000
48.380837 65.000000
48.400319 65.000000
48.419801 66.000000
48.439284 61.000000
48.458766 55.000000
48.478248 53.000000
48.497731 59.000000
48.517213 66.000000
48.536696 56.000000
48.556178 63.000000
48.575660 62.000000
48.595143 68.000000
48.614625 59.000000
48.634107 75.000000
48.653590 61.000000
48.673072 63.000000
48.692555 63.000000
48.712037 50.000000
48.731519 55.000000
48.751002 61.000000
48.770484 74.000000
48.789966 53.000000
48.809449 64.000000
48.828931 70.000000
48.848413 63.000000
48.867896 53.000000
48.887378 69.000000
48.906861 61.000000
48.926343 62.000000
48.945825 55.000000
48.965308 69.000000
48.984790 79.000000
49.004272 64.000000
49.023755 55.000000
49.043237 62.000000
49.062720 55.000000
49.082202 81.000000
49.101684 79.000000
49.121167 67.000000
49.140649 58.000000
49.160131 59.000000
49.179614 83.000000
49.199096 65.000000
49.218578 63.000000
49.238061 70.000000
49.257543 62.000000
49.277026 56.000000
49.296508 72.000000
49.315990 76.000000
49.335473 69.000000
49.354955 70.000000
49.374437 72.000000
49.393920 47.000000
49.413402 64.000000
49.432885 64.000000
49.452367 74.000000
49.471849 72.000000
49.491332 73.000000
49.510814 67.000000
49.530296 62.000000
49.549779 57.000000
49.569261 63.000000
49.588743 78.000000
49.608226 72.000000
49.627708 57.000000
49.647191 74.000000
49.666673 67.000000
49.686155 49.000000
49.705638 67.000000
49.725120 66.000000
49.744602 64.000000
49.764085 53.000000
49.783567 64.000000
49.803050 68.000000
49.822532 65.000000
49.842014 59.000000
49.861497 53.000000
49.880979 59.000000
49.900461 72.000000
49.919944 62.000000
49.939426 78.000000
49.958908 72.000000
49.978391 63.000000
49.997873 72.000000
50.017356 58.000000
50.036838 68.000000
50.056320 48.000000
50.075803 56.000000
50.095285 65.000000
50.114767 52.000000
50.134250 59.000000
50.153732 69.000000
50.173215 52.000000
50.192697 56.000000
50.212179 67.000000
50.231662 57.000000
50.251144 65.000000
50.270626 71.000000
50.290109 69.000000
50.309591 81.000000
50.329074 73.000000
50.348556 69.000000
50.368038 79.000000
50.387521 68.000000
50.407003 68.000000
50.426485 70.000000
50.445968 75.000000
50.465450 70.000000
50.484932 67.000000
50.504415 65.000000
50.523897 77.000000
50.543380 71.000000
50.562862 64.000000
50.582344 72.000000
50.601827 64.000000
50.621309 78.000000
50.640791 70.000000
50.660274 67.000000
50.679756 76.000000
50.699239 68.000000
50.718721 60.000000
50.738203 56.000000
50.757686 77.000000
50.777168 68.000000
50.796650 63.000000
50.816133 60.000000
50.835615 69.000000
50.855097 65.000000
50.874580 70.000000
50.894062 67.000000
50.913545 76.000000
50.933027 65.000000
50.952509 74.000000
50.971992 62.000000
50.991474 54.000000
51.010956 70.000000
51.030439 58.000000
51.049921 59.000000
51.069404 71.000000
51.088886 64.000000
51.108368 55.000000
51.127851 67.000000
51.147333 61.000000
51.166815 73.000000
51.186298 60.000000
51.205780 67.000000
51.225262 60.000000
51.244745 52.000000
51.264227 70.000000
51.283710 73.000000
51.303192 58.000000
51.322674 59.000000
51.342157 69.000000
51.361639 55.000000
51.381121 71.000000
51.400604 61.000000
51.420086 74.000000
51.439569 62.000000
51.459051 51.000000
51.478533 73.000000
51.498016 60.000000
51.517498 67.000000
51.536980 47.000000
51.556463 62.000000
51.575945 64.000000
51.595427 69.000000
51.614910 61.000000
51.634392 61.000000
51.653875 76.000000
51.673357 62.000000
51.692839 58.000000
51.712322 72.000000
51.731804 84.000000
51.751286 63.000000
51.770769 58.000000
51.790251 60.000000
51.809734 79.000000
51.829216 66.000000
51.848698 75.000000
51.868181 67.000000
51.887663 68.000000
51.907145 76.000000
51.926628 63.000000
51.946110 61.000000
51.965593 63.000000
51.985075 79.000000
52.004557 61.000000
52.024040 64.000000
52.043522 63.000000
52.063004 66.000000
52.082487 52.000000
52.101969 62.000000
52.121451 71.000000
52.140934 70.000000
52.160416 77.000000
52.179899 59.000000
52.199381 67.000000
52.218863 61.000000
52.238346 82.000000
52.257828 60.000000
52.277310 76.000000
52.296793 63.000000
52.316275 69.000000
52.335758 58.000000
52.355240 58.000000
52.374722 66.000000
52.394205 69.000000
52.413687 54.000000
52.433169 71.000000
52.452652 81.000000
52.472134 58.000000
52.491616 62.000000
52.511099 69.000000
52.530581 79.000000
52.550064 71.000000
52.569546 51.000000
52.589028 59.000000
52.608511 79.000000
52.627993 49.000000
52.647475 65.000000
52.666958 58.000000
52.686440 66.000000
52.705923 62.000000
52.725405 65.000000
52.744887 74.000000
52.764370 59.000000
52.783852 55.000000
52.803334 64.000000
52.822817 60.000000
52.842299 70.000000
52.861781 57.000000
52.881264 62.000000
52.900746 47.000000
52.920229 69.000000
52.939711 63.000000
52.959193 64.000000
52.978676 44.000000
52.998158 78.000000
53.017640 77.000000
53.037123 63.000000
53.056605 75.000000
53.076088 63.000000
53.095570 75.000000
53.115052 87.000000
53.134535 68.000000
53.154017 75.000000
53.173499 42.000000
53.192982 70.000000
53.212464 67.000000
53.231946 58.000000
53.251429 68.000000
53.270911 62.000000
53.290394 75.000000
53.309876 77.000000
53.329358 65.000000
53.348841 61.000000
53.368323 62.000000
53.387805 55.000000
53.407288 64.000000
53.426770 78.000000
53.446253 63.000000
53.465735 68.000000
53.485217 70.000000
53.504700 75.000000
53.524182 60.000000
53.543664 63.000000
53.563147 65.000000
53.582629 74.000000
53.602112 80.000000
53.621594 62.000000
53.641076 57.000000
53.660559 61.000000
53.680041 59.000000
53.699523 69.000000
53.719006 46.000000
53.738488 53.000000
53.757970 60.000000
53.777453 59.000000
53.796935 65.000000
53.816418 78.000000
53.835900 63.000000
53.855382 64.000000
53.874865 67.000000
53.894347 61.000000
53.913829 64.000000
53.933312 62.000000
53.952794 71.000000
53.972277 60.000000
53.991759 75.000000
54.011241 63.000000
54.030724 69.000000
54.050206 62.000000
54.069688 64.000000
54.089171 74.000000
54.108653 76.000000
54.128135 56.000000
54.147618 52.000000
54.167100 60.000000
54.186583 77.000000
54.206065 81.000000
54.225547 65.000000
54.245030 72.000000
54.264512 71.000000
54.283994 72.000000
54.303477 60.000000
54.322959 58.000000
54.342442 72.000000
54.361924 67.000000
54.381406 61.000000
54.400889 70.000000
54.420371 73.000000
54.439853 58.000000
54.459336 56.000000
54.478818 72.000000
54.498300 73.000000
54.517783 66.000000
54.537265 65.000000
54.556748 63.000000
54.576230 65.000000
54.595712 62.000000
54.615195 54.000000
54.634677 78.000000
54.654159 65.000000
54.673642 65.000000
54.693124 62.000000
54.712607 75.000000
54.732089 70.000000
54.751571 63.000000
54.771054 65.000000
54.790536 64.000000
54.810018 55.000000
54.829501 58.000000
54.848983 73.000000
54.868465 64.000000
54.887948 62.000000
54.907430 73.000000
54.926913 57.000000
54.946395 80.000000
54.965877 61.000000
54.985360 72.000000
55.004842 79.000000
55.024324 54.000000
55.043807 62.000000
55.063289 78.000000
55.082772 73.000000
55.102254 67.000000
55.121736 73.000000
55.141219 61.000000
55.160701 61.000000
55.180183 59.000000
55.199666 62.000000
55.219148 65.000000
55.238630 59.000000
55.258113 64.000000
55.277595 77.000000
55.297078 66.000000
55.316560 75.000000
55.336042 56.000000
55.355525 54.000000
55.375007 66.000000
55.394489 73.000000
55.413972 71.000000
55.433454 67.000000
55.452937 76.000000
55.472419 83.000000
55.491901 57.000000
55.511384 70.000000
55.530866 75.000000
55.550348 62.000000
55.569831 48.000000
55.589313 60.000000
55.608796 68.000000
55.628278 57.000000
55.647760 57.000000
55.667243 85.000000
55.686725 59.000000
55.706207 74.000000
55.725690 62.000000
55.745172 66.000000
55.764654 64.000000
55.784137 62.000000
55.803619 68.000000
55.823102 70.000000
55.842584 57.000000
55.862066 63.000000
55.881549 77.000000
55.901031 89.000000
55.920513 66.000000
55.939996 67.000000
55.959478 64.000000
55.978961 74.000000
55.998443 72.000000
56.017925 66.000000
56.037408 61.000000
56.056890 66.000000
56.076372 65.000000
56.095855 66.000000
56.115337 71.000000
56.134819 80.000000
56.154302 85.000000
56.173784 80.000000
56.193267 80.000000
56.212749 140.000000
56.232231 196.000000
56.251714 251.000000
56.271196 305.000000
56.290678 246.000000
56.310161 201.000000
56.329643 121.000000
56.349126 101.000000
56.368608 113.000000
56.388090 147.000000
56.407573 168.000000
56.427055 199.000000
56.446537 143.000000
56.466020 134.000000
56.485502 74.000000
56.504984 78.000000
56.524467 75.000000
56.543949 77.000000
56.563432 68.000000
56.582914 61.000000
56.602396 69.000000
56.621879 72.000000
56.641361 92.000000
56.660843 64.000000
56.680326 61.000000
56.699808 72.000000
56.719291 65.000000
56.738773 59.000000
56.758255 75.000000
56.777738 63.000000
56.797220 69.000000
56.816702 53.000000
56.836185 71.000000
56.855667 69.000000
56.875149 86.000000
56.894632 66.000000
56.914114 69.000000
56.933597 60.000000
56.953079 79.000000
56.972561 56.000000
56.992044 70.000000
57.011526 68.000000
57.031008 80.000000
57.050491 77.000000
57.069973 68.000000
57.089456 74.000000
57.108938 66.000000
57.128420 68.000000
57.147903 67.000000
57.167385 62.000000
57.186867 67.000000
57.206350 61.000000
57.225832 84.000000
57.245315 71.000000
57.264797 63.000000
57.284279 61.000000
57.303762 69.000000
57.323244 61.000000
57.342726 71.000000
57.362209 66.000000
57.381691 70.000000
57.401173 72.000000
57.420656 79.000000
57.440138 69.000000
57.459621 60.000000
57.479103 61.000000
57.498585 80.000000
57.518068 77.000000
57.537550 78.000000
57.557032 63.000000
57.576515 74.000000
57.595997 61.000000
57.615480 70.000000
57.634962 58.000000
57.654444 67.000000
57.673927 61.000000
57.693409 65.000000
57.712891 62.000000
57.732374 58.000000
57.751856 77.000000
57.771338 63.000000
57.790821 56.000000
57.810303 63.000000
57.829786 54.000000
57.849268 69.000000
57.868750 62.000000
57.888233 66.000000
57.907715 83.000000
57.927197 64.000000
57.946680 74.000000
57.966162 56.000000
57.985645 73.000000
58.005127 71.000000
58.024609 64.000000
58.044092 60.000000
58.063574 57.000000
58.083056 66.000000
58.102539 62.000000
58.122021 56.000000
58.141503 74.000000
58.160986 56.000000
58.180468 83.000000
58.199951 56.000000
58.219433 67.000000
58.238915 71.000000
58.258398 69.000000
58.277880 64.000000
58.297362 72.000000
58.316845 74.000000
58.336327 72.000000
58.355810 64.000000
58.375292 89.000000
58.394774 56.000000
58.414257 66.000000
58.433739 57.000000
58.453221 62.000000
58.472704 77.000000
58.492186 69.000000
58.511668 71.000000
58.531151 72.000000
58.550633 56.000000
58.570116 51.000000
58.589598 74.000000
58.609080 65.000000
58.628563 61.000000
58.648045 62.000000
58.667527 66.000000
58.687010 71.000000
58.706492 58.000000
58.725975 74.000000
58.745457 72.000000
58.764939 71.000000
58.784422 58.000000
58.803904 56.000000
58.823386 69.000000
58.842869 76.000000
58.862351 67.000000
58.881834 80.000000
58.901316 88.000000
58.920798 69.000000
58.940281 64.000000
58.959763 84.000000
58.979245 91.000000
58.998728 78.000000
59.018210 94.000000
59.037692 70.000000
59.057175 67.000000
59.076657 65.000000
59.096140 63.000000
59.115622 61.000000
59.135104 93.000000
59.154587 82.000000
59.174069 100.000000
59.193551 59.000000
59.213034 70.000000
59.232516 82.000000
59.251999 70.000000
59.271481 71.000000
59.290963 66.000000
59.310446 74.000000
59.329928 72.000000
59.349410 72.000000
59.368893 65.000000
59.388375 70.000000
59.407857 71.000000
59.427340 74.000000
59.446822 59.000000
59.466305 73.000000
59.485787 69.000000
59.505269 56.000000
59.524752 70.000000
59.544234 58.000000
59.563716 68.000000
59.583199 74.000000
59.602681 94.000000
59.622164 58.000000
59.641646 75.000000
59.661128 63.000000
59.680611 66.000000
59.700093 78.000000
59.719575 55.000000
59.739058 56.000000
59.758540 67.000000
59.778022 71.000000
59.797505 85.000000
59.816987 71.000000
59.836470 57.000000
59.855952 69.000000
59.875434 59.000000
59.894917 60.000000
59.914399 75.000000
59.933881 68.000000
59.953364 62.000000
59.972846 73.000000
59.992329 65.000000
60.011811 54.000000
60.031293 77.000000
60.050776 66.000000
60.070258 63.000000
60.089740 67.000000
60.109223 60.000000
60.128705 60.000000
60.148187 75.000000
60.167670 69.000000
60.187152 62.000000
60.206635 69.000000
60.226117 87.000000
60.245599 64.000000
60.265082 53.000000
60.284564 72.000000
60.304046 64.000000
60.323529 70.000000
60.343011 62.000000
60.362494 72.000000
60.381976 76.000000
60.401458 70.000000
60.420941 60.000000
60.440423 67.000000
60.459905 56.000000
60.479388 80.000000
60.498870 74.000000
60.518352 58.000000
60.537835 69.000000
60.557317 66.000000
60.576800 91.000000
60.596282 60.000000
60.615764 75.000000
60.635247 68.000000
60.654729 59.000000
60.674211 62.000000
60.693694 71.000000
60.713176 55.000000
60.732659 67.000000
60.752141 58.000000
60.771623 78.000000
60.791106 69.000000
60.810588 70.000000
60.830070 52.000000
60.849553 78.000000
60.869035 76.000000
60.888518 65.000000
60.908000 75.000000
60.927482 66.000000
60.946965 74.000000
60.966447 66.000000
60.985929 58.000000
61.005412 61.000000
61.024894 62.000000
61.044376 67.000000
61.063859 65.000000
61.083341 70.000000
61.102824 74.000000
61.122306 74.000000
61.141788 70.000000
61.161271 63.000000
61.180753 66.000000
61.200235 66.000000
61.219718 65.000000
61.239200 64.000000
61.258683 68.000000
61.278165 88.000000
61.297647 58.000000
61.317130 72.000000
61.336612 76.000000
61.356094 62.000000
61.375577 69.000000
61.395059 65.000000
61.414541 70.000000
61.434024 67.000000
61.453506 66.000000
61.472989 57.000000
61.492471 62.000000
61.511953 69.000000
61.531436 86.000000
61.550918 75.000000
61.570400 77.000000
61.589883 84.000000
61.609365 63.000000
61.628848 96.000000
61.648330 101.000000
61.667812 106.000000
61.687295 132.000000
61.706777 100.000000
61.726259 93.000000
61.745742 71.000000
61.765224 74.000000
61.784706 61.000000
61.804189 84.000000
61.823671 96.000000
61.843154 105.000000
61.862636 92.000000
61.882118 80.000000
61.901601 72.000000
61.921083 74.000000
61.940565 71.000000
61.960048 63.000000
61.979530 78.000000
61.999013 67.000000
62.018495 63.000000
62.037977 71.000000
62.057460 82.000000
62.076942 67.000000
62.096424 73.000000
62.115907 54.000000
62.135389 69.000000
62.154871 68.000000
62.174354 58.000000
62.193836 85.000000
62.213319 75.000000
62.232801 55.000000
62.252283 69.000000
62.271766 72.000000
62.291248 73.000000
62.310730 57.000000
62.330213 70.000000
62.349695 64.000000
62.369178 63.000000
62.388660 73.000000
62.408142 68.000000
62.427625 69.000000
62.447107 62.000000
62.466589 68.000000
62.486072 50.000000
62.505554 63.000000
62.525037 63.000000
62.544519 59.000000
62.564001 63.000000
62.583484 70.000000
62.602966 76.000000
62.622448 77.000000
62.641931 66.000000
62.661413 70.000000
62.680895 74.000000
62.700378 69.000000
62.719860 63.000000
62.739343 66.000000
62.758825 63.000000
62.778307 78.000000
62.797790 75.000000
62.817272 63.000000
62.836754 63.000000
62.856237 83.000000
62.875719 83.000000
62.895202 64.000000
62.914684 62.000000
62.934166 68.000000
62.953649 72.000000
62.973131 63.000000
62.992613 64.000000
63.012096 70.000000
63.031578 67.000000
63.051060 59.000000
63.070543 58.000000
63.090025 74.000000
63.109508 65.000000
63.128990 56.000000
63.148472 64.000000
63.167955 73.000000
63.187437 80.000000
63.206919 67.000000
63.226402 70.000000
63.245884 80.000000
63.265367 71.000000
63.284849 68.000000
63.304331 76.000000
63.323814 66.000000
63.343296 66.000000
63.362778 68.000000
63.382261 57.000000
63.401743 80.000000
63.421225 65.000000
63.440708 71.000000
63.460190 58.000000
63.479673 64.000000
63.499155 65.000000
63.518637 77.000000
63.538120 83.000000
63.557602 71.000000
63.577084 79.000000
63.596567 70.000000
63.616049 69.000000
63.635532 74.000000
63.655014 72.000000
63.674496 66.000000
63.693979 70.000000
63.713461 61.000000
63.732943 67.000000
63.752426 55.000000
63.771908 73.000000
63.791390 74.000000
63.810873 56.000000
63.830355 69.000000
63.849838 62.000000
63.869320 71.000000
63.888802 69.000000
63.908285 69.000000
63.927767 100.000000
63.947249 67.000000
63.966732 70.000000
63.986214 88.000000
64.005697 57.000000
64.025179 66.000000
64.044661 80.000000
64.064144 86.000000
64.083626 75.000000
64.103108 59.000000
64.122591 78.000000
64.142073 81.000000
64.161556 57.000000
64.181038 76.000000
64.200520 91.000000
64.220003 102.000000
64.239485 98.000000
64.258967 109.000000
64.278450 129.000000
64.297932 170.000000
64.317414 160.000000
64.336897 139.000000
64.356379 98.000000
64.375862 76.000000
64.395344 72.000000
64.414826 70.000000
64.434309 95.000000
64.453791 110.000000
64.473273 132.000000
64.492756 140.000000
64.512238 127.000000
64.531721 92.000000
64.551203 88.000000
64.570685 70.000000
64.590168 83.000000
64.609650 73.000000
64.629132 62.000000
64.648615 76.000000
64.668097 60.000000
64.687579 74.000000
64.707062 68.000000
64.726544 80.000000
64.746027 73.000000
64.765509 65.000000
64.784991 83.000000
64.804474 53.000000
64.823956 69.000000
64.843438 62.000000
64.862921 80.000000
64.882403 73.000000
64.901886 77.000000
64.921368 77.000000
64.940850 66.000000
64.960333 64.000000
64.979815 69.000000
64.999297 67.000000
65.018780 77.000000
65.038262 75.000000
65.057744 63.000000
65.077227 67.000000
65.096709 76.000000
65.116192 78.000000
65.135674 64.000000
65.155156 64.000000
65.174639 77.000000
65.194121 60.000000
65.213603 79.000000
65.233086 67.000000
65.252568 75.000000
65.272051 70.000000
65.291533 70.000000
65.311015 55.000000
65.330498 66.000000
65.349980 62.000000
65.369462 86.000000
65.388945 61.000000
65.408427 62.000000
65.427909 65.000000
65.447392 67.000000
65.466874 65.000000
65.486357 74.000000
65.505839 62.000000
65.525321 72.000000
65.544804 60.000000
65.564286 71.000000
65.583768 63.000000
65.603251 74.000000
65.622733 70.000000
65.642216 60.000000
65.661698 72.000000
65.681180 60.000000
65.700663 74.000000
65.720145 63.000000
65.739627 60.000000
65.759110 87.000000
65.778592 61.000000
65.798075 76.000000
65.817557 81.000000
65.837039 75.000000
65.856522 69.000000
65.876004 68.000000
65.895486 68.000000
65.914969 66.000000
65.934451 57.000000
65.953933 75.000000
65.973416 51.000000
65.992898 70.000000
66.012381 80.000000
66.031863 63.000000
66.051345 65.000000
66.070828 74.000000
66.090310 53.000000
66.109792 74.000000
66.129275 77.000000
66.148757 79.000000
66.168240 67.000000
66.187722 74.000000
66.207204 71.000000
66.226687 68.000000
66.246169 64.000000
66.265651 79.000000
66.285134 76.000000
66.304616 80.000000
66.324098 54.000000
66.343581 56.000000
66.363063 70.000000
66.382546 72.000000
66.402028 67.000000
66.421510 72.000000
66.440993 72.000000
66.460475 72.000000
66.479957 70.000000
66.499440 73.000000
66.518922 71.000000
66.538405 65.000000
66.557887 69.000000
66.577369 63.000000
66.596852 60.000000
66.616334 65.000000
66.635816 67.000000
66.655299 63.000000
66.674781 78.000000
66.694263 63.000000
66.713746 63.000000
66.733228 68.000000
66.752711 65.000000
66.772193 85.000000
66.791675 61.000000
66.811158 69.000000
66.830640 72.000000
66.850122 73.000000
66.869605 61.000000
66.889087 83.000000
66.908570 69.000000
66.928052 67.000000
66.947534 55.000000
66.967017 70.000000
66.986499 80.000000
67.005981 54.000000
67.025464 70.000000
67.044946 62.000000
67.064428 61.000000
67.083911 78.000000
67.103393 61.000000
67.122876 83.000000
67.142358 70.000000
67.161840 73.000000
67.181323 63.000000
67.200805 60.000000
67.220287 66.000000
67.239770 58.000000
67.259252 72.000000
67.278735 70.000000
67.298217 87.000000
67.317699 58.000000
67.337182 58.000000
67.356664 52.000000
67.376146 76.000000
67.395629 74.000000
67.415111 56.000000
67.434593 63.000000
67.454076 76.000000
67.473558 55.000000
67.493041 82.000000
67.512523 49.000000
67.532005 77.000000
67.551488 51.000000
67.570970 62.000000
67.590452 68.000000
67.609935 58.000000
67.629417 76.000000
67.648900 62.000000
67.668382 75.000000
67.687864 78.000000
67.707347 56.000000
67.726829 79.000000
67.746311 71.000000
67.765794 67.000000
67.785276 63.000000
67.804759 62.000000
67.824241 87.000000
67.843723 65.000000
67.863206 75.000000
67.882688 70.000000
67.902170 72.000000
67.921653 68.000000
67.941135 64.000000
67.960617 76.000000
67.980100 59.000000
67.999582 55.000000
68.019065 69.000000
68.038547 68.000000
68.058029 77.000000
68.077512 60.000000
68.096994 63.000000
68.116476 77.000000
68.135959 75.000000
68.155441 66.000000
68.174924 73.000000
68.194406 52.000000
68.213888 59.000000
68.233371 68.000000
68.252853 73.000000
68.272335 64.000000
68.291818 63.000000
68.311300 61.000000
68.330782 79.000000
68.350265 67.000000
68.369747 78.000000
68.389230 74.000000
68.408712 84.000000
68.428194 60.000000
68.447677 51.000000
68.467159 80.000000
68.486641 76.000000
68.506124 56.000000
68.525606 64.000000
68.545089 62.000000
68.564571 82.000000
68.584053 62.000000
68.603536 88.000000
68.623018 74.000000
68.642500 63.000000
68.661983 67.000000
68.681465 67.000000
68.700947 75.000000
68.720430 71.000000
68.739912 58.000000
68.759395 66.000000
68.778877 67.000000
68.798359 68.000000
68.817842 92.000000
68.837324 74.000000
68.856806 82.000000
68.876289 54.000000
68.895771 75.000000
68.915254 79.000000
68.934736 76.000000
68.954218 66.000000
68.973701 56.000000
68.993183 59.000000
69.012665 73.000000
69.032148 70.000000
69.051630 75.000000
69.071112 72.000000
69.090595 59.000000
69.110077 70.000000
69.129560 56.000000
69.149042 79.000000
69.168524 64.000000
69.188007 64.000000
69.207489 77.000000
69.226971 77.000000
69.246454 69.000000
69.265936 63.000000
69.285419 80.000000
69.304901 69.000000
69.324383 73.000000
69.343866 75.000000
69.363348 64.000000
69.382830 74.000000
69.402313 79.000000
69.421795 78.000000
69.441278 82.000000
69.460760 81.000000
69.480242 69.000000
69.499725 74.000000
69.519207 68.000000
69.538689 97.000000
69.558172 72.000000
69.577654 63.000000
69.597136 70.000000
69.616619 69.000000
69.636101 71.000000
69.655584 66.000000
69.675066 64.000000
69.694548 68.000000
69.714031 77.000000
69.733513 58.000000
69.752995 58.000000
69.772478 63.000000
69.791960 58.000000
69.811443 70.000000
69.830925 63.000000
69.850407 66.000000
69.869890 66.000000
69.889372 72.000000
69.908854 76.000000
69.928337 70.000000
69.947819 63.000000
69.967301 64.000000
69.986784 72.000000
70.006266 53.000000
70.025749 77.000000
