4.000000 1215.000000
4.019482 1213.000000
4.038965 1215.000000
4.058447 1276.000000
4.077929 1159.000000
4.097412 1240.000000
4.116894 1190.000000
4.136377 1131.000000
4.155859 1102.000000
4.175341 1154.000000
4.194824 1101.000000
4.214306 1096.000000
4.233788 1064.000000
4.253271 1140.000000
4.272753 1019.000000
4.292236 1101.000000
4.311718 1046.000000
4.331200 1054.000000
4.350683 1056.000000
4.370165 967.000000
4.389647 971.000000
4.409130 1000.000000
4.428612 965.000000
4.448094 955.000000
4.467577 951.000000
4.487059 993.000000
4.506542 978.000000
4.526024 962.000000
4.545506 948.000000
4.564989 968.000000
4.584471 972.000000
4.603953 960.000000
4.623436 858.000000
4.642918 922.000000
4.662401 899.000000
4.681883 930.000000
4.701365 887.000000
4.720848 898.000000
4.740330 832.000000
4.759812 898.000000
4.779295 892.000000
4.798777 872.000000
4.818259 848.000000
4.837742 830.000000
4.857224 860.000000
4.876707 794.000000
4.896189 800.000000
4.915671 847.000000
4.935154 859.000000
4.954636 821.000000
4.974118 855.000000
4.993601 846.000000
5.013083 814.000000
5.032566 841.000000
5.052048 806.000000
5.071530 826.000000
5.091013 811.000000
5.110495 832.000000
5.129977 840.000000
5.149460 768.000000
5.168942 774.000000
5.188425 793.000000
5.207907 773.000000
5.227389 714.000000
5.246872 845.000000
5.266354 830.000000
5.285836 779.000000
5.305319 826.000000
5.324801 829.000000
5.344283 787.000000
5.363766 802.000000
5.383248 770.000000
5.402731 777.000000
5.422213 802.000000
5.441695 789.000000
5.461178 752.000000
5.480660 751.000000
5.500142 765.000000
5.519625 757.000000
5.539107 767.000000
5.558590 770.000000
5.578072 778.000000
5.597554 776.000000
5.617037 780.000000
5.636519 759.000000
5.656001 805.000000
5.675484 711.000000
5.694966 746.000000
5.714448 793.000000
5.733931 736.000000
5.753413 742.000000
5.772896 721.000000
5.792378 722.000000
5.811860 741.000000
5.831343 737.000000
5.850825 722.000000
5.870307 762.000000
5.889790 756.000000
5.909272 723.000000
5.928755 659.000000
5.948237 744.000000
5.967719 733.000000
5.987202 749.000000
6.006684 725.000000
6.026166 703.000000
6.045649 737.000000
6.065131 703.000000
6.084613 738.000000
6.104096 738.000000
6.123578 717.000000
6.143061 680.000000
6.162543 708.000000
6.182025 702.000000
6.201508 717.000000
6.220990 704.000000
6.240472 725.000000
6.259955 712.000000
6.279437 729.000000
6.298920 672.000000
6.318402 720.000000
6.337884 706.000000
6.357367 728.000000
6.376849 736.000000
6.396331 709.000000
6.415814 706.000000
6.435296 680.000000
6.454778 680.000000
6.474261 656.000000
6.493743 698.000000
6.513226 684.000000
6.532708 656.000000
6.552190 666.000000
6.571673 715.000000
6.591155 669.000000
6.610637 671.000000
6.630120 648.000000
6.649602 686.000000
6.669085 643.000000
6.688567 691.000000
6.708049 669.000000
6.727532 724.000000
6.747014 714.000000
6.766496 724.000000
6.785979 681.000000
6.805461 694.000000
6.824944 700.000000
6.844426 670.000000
6.863908 676.000000
6.883391 711.000000
6.902873 633.000000
6.922355 710.000000
6.941838 618.000000
6.961320 645.000000
6.980802 672.000000
7.000285 679.000000
7.019767 651.000000
7.039250 636.000000
7.058732 662.000000
7.078214 597.000000
7.097697 656.000000
7.117179 669.000000
7.136661 678.000000
7.156144 639.000000
7.175626 665.000000
7.195109 692.000000
7.214591 610.000000
7.234073 665.000000
7.253556 619.000000
7.273038 629.000000
7.292520 630.000000
7.312003 656.000000
7.331485 671.000000
7.350967 625.000000
7.370450 670.000000
7.389932 609.000000
7.409415 649.000000
7.428897 609.000000
7.448379 594.000000
7.467862 646.000000
7.487344 612.000000
7.506826 658.000000
7.526309 629.000000
7.545791 625.000000
7.565274 651.000000
7.584756 631.000000
7.604238 634.000000
7.623721 637.000000
7.643203 660.000000
7.662685 594.000000
7.682168 647.000000
7.701650 636.000000
7.721132 658.000000
7.740615 618.000000
7.760097 618.000000
7.779580 604.000000
7.799062 627.000000
7.818544 635.000000
7.838027 600.000000
7.857509 623.000000
7.876991 608.000000
7.896474 649.000000
7.915956 644.000000
7.935439 601.000000
7.954921 625.000000
7.974403 615.000000
7.993886 660.000000
8.013368 636.000000
8.032850 637.000000
8.052333 623.000000
8.071815 620.000000
8.091297 676.000000
8.110780 583.000000
8.130262 624.000000
8.149745 662.000000
8.169227 611.000000
8.188709 636.000000
8.208192 604.000000
8.227674 669.000000
8.247156 604.000000
8.266639 610.000000
8.286121 643.000000
8.305604 593.000000
8.325086 655.000000
8.344568 622.000000
8.364051 635.000000
8.383533 567.000000
8.403015 601.000000
8.422498 627.000000
8.441980 614.000000
8.461463 648.000000
8.480945 643.000000
8.500427 667.000000
8.519910 616.000000
8.539392 621.000000
8.558874 620.000000
8.578357 631.000000
8.597839 604.000000
8.617321 664.000000
8.636804 662.000000
8.656286 616.000000
8.675769 624.000000
8.695251 606.000000
8.714733 631.000000
8.734216 622.000000
8.753698 639.000000
8.773180 570.000000
8.792663 576.000000
8.812145 599.000000
8.831628 639.000000
8.851110 631.000000
8.870592 633.000000
8.890075 631.000000
8.909557 644.000000
8.929039 568.000000
8.948522 651.000000
8.968004 609.000000
8.987486 616.000000
9.006969 596.000000
9.026451 639.000000
9.045934 622.000000
9.065416 586.000000
9.084898 601.000000
9.104381 585.000000
9.123863 647.000000
9.143345 604.000000
9.162828 594.000000
9.182310 568.000000
9.201793 617.000000
9.221275 626.000000
9.240757 609.000000
9.260240 640.000000
9.279722 652.000000
9.299204 637.000000
9.318687 596.000000
9.338169 659.000000
9.357651 644.000000
9.377134 624.000000
9.396616 592.000000
9.416099 617.000000
9.435581 535.000000
9.455063 560.000000
9.474546 603.000000
9.494028 585.000000
9.513510 604.000000
9.532993 594.000000
9.552475 610.000000
9.571958 617.000000
9.591440 650.000000
9.610922 632.000000
9.630405 639.000000
9.649887 599.000000
9.669369 662.000000
9.688852 614.000000
9.708334 602.000000
9.727816 593.000000
9.747299 576.000000
9.766781 639.000000
9.786264 604.000000
9.805746 606.000000
9.825228 607.000000
9.844711 658.000000
9.864193 584.000000
9.883675 585.000000
9.903158 610.000000
9.922640 608.000000
9.942123 659.000000
9.961605 617.000000
9.981087 625.000000
10.000570 639.000000
10.020052 615.000000
10.039534 667.000000
10.059017 627.000000
10.078499 593.000000
10.097982 625.000000
10.117464 622.000000
10.136946 582.000000
10.156429 635.000000
10.175911 622.000000
10.195393 626.000000
10.214876 642.000000
10.234358 619.000000
10.253840 600.000000
10.273323 640.000000
10.292805 652.000000
10.312288 605.000000
10.331770 622.000000
10.351252 637.000000
10.370735 679.000000
10.390217 575.000000
10.409699 635.000000
10.429182 594.000000
10.448664 620.000000
10.468147 609.000000
10.487629 605.000000
10.507111 607.000000
10.526594 616.000000
10.546076 625.000000
10.565558 622.000000
10.585041 608.000000
10.604523 606.000000
10.624005 603.000000
10.643488 612.000000
10.662970 640.000000
10.682453 633.000000
10.701935 626.000000
10.721417 613.000000
10.740900 588.000000
10.760382 621.000000
10.779864 602.000000
10.799347 615.000000
10.818829 596.000000
10.838312 615.000000
10.857794 614.000000
10.877276 640.000000
10.896759 632.000000
10.916241 615.000000
10.935723 630.000000
10.955206 605.000000
10.974688 567.000000
10.994170 630.000000
11.013653 617.000000
11.033135 625.000000
11.052618 622.000000
11.072100 628.000000
11.091582 554.000000
11.111065 619.000000
11.130547 649.000000
11.150029 567.000000
11.169512 584.000000
11.188994 578.000000
11.208477 651.000000
11.227959 670.000000
11.247441 586.000000
11.266924 602.000000
11.286406 603.000000
11.305888 607.000000
11.325371 577.000000
11.344853 600.000000
11.364335 626.000000
11.383818 575.000000
11.403300 670.000000
11.422783 592.000000
11.442265 608.000000
11.461747 621.000000
11.481230 620.000000
11.500712 616.000000
11.520194 599.000000
11.539677 609.000000
11.559159 587.000000
11.578642 620.000000
11.598124 657.000000
11.617606 609.000000
11.637089 600.000000
11.656571 604.000000
11.676053 655.000000
11.695536 579.000000
11.715018 617.000000
11.734500 611.000000
11.753983 630.000000
11.773465 641.000000
11.792948 625.000000
11.812430 583.000000
11.831912 610.000000
11.851395 648.000000
11.870877 630.000000
11.890359 617.000000
11.909842 672.000000
11.929324 610.000000
11.948807 594.000000
11.968289 605.000000
11.987771 625.000000
12.007254 620.000000
12.026736 572.000000
12.046218 638.000000
12.065701 631.000000
12.085183 635.000000
12.104666 625.000000
12.124148 622.000000
12.143630 636.000000
12.163113 594.000000
12.182595 611.000000
12.202077 649.000000
12.221560 639.000000
12.241042 646.000000
12.260524 597.000000
12.280007 576.000000
12.299489 584.000000
12.318972 585.000000
12.338454 603.000000
12.357936 628.000000
12.377419 581.000000
12.396901 631.000000
12.416383 635.000000
12.435866 646.000000
12.455348 615.000000
12.474831 605.000000
12.494313 587.000000
12.513795 591.000000
12.533278 630.000000
12.552760 615.000000
12.572242 597.000000
12.591725 662.000000
12.611207 585.000000
12.630689 629.000000
12.650172 625.000000
12.669654 632.000000
12.689137 627.000000
12.708619 609.000000
12.728101 663.000000
12.747584 675.000000
12.767066 600.000000
12.786548 588.000000
12.806031 629.000000
12.825513 588.000000
12.844996 644.000000
12.864478 639.000000
12.883960 587.000000
12.903443 618.000000
12.922925 634.000000
12.942407 655.000000
12.961890 618.000000
12.981372 608.000000
13.000854 607.000000
13.020337 595.000000
13.039819 633.000000
13.059302 622.000000
13.078784 593.000000
13.098266 605.000000
13.117749 661.000000
13.137231 588.000000
13.156713 633.000000
13.176196 612.000000
13.195678 626.000000
13.215161 595.000000
13.234643 595.000000
13.254125 627.000000
13.273608 603.000000
13.293090 632.000000
13.312572 637.000000
13.332055 624.000000
13.351537 636.000000
13.371019 626.000000
13.390502 582.000000
13.409984 644.000000
13.429467 609.000000
13.448949 592.000000
13.468431 631.000000
13.487914 592.000000
13.507396 617.000000
13.526878 618.000000
13.546361 587.000000
13.565843 624.000000
13.585326 659.000000
13.604808 627.000000
13.624290 579.000000
13.643773 605.000000
13.663255 607.000000
13.682737 664.000000
13.702220 618.000000
13.721702 613.000000
13.741185 630.000000
13.760667 621.000000
13.780149 629.000000
13.799632 619.000000
13.819114 656.000000
13.838596 607.000000
13.858079 596.000000
13.877561 644.000000
13.897043 606.000000
13.916526 587.000000
13.936008 551.000000
13.955491 619.000000
13.974973 637.000000
13.994455 624.000000
14.013938 594.000000
14.033420 602.000000
14.052902 642.000000
14.072385 623.000000
14.091867 583.000000
14.111350 593.000000
14.130832 634.000000
14.150314 577.000000
14.169797 600.000000
14.189279 598.000000
14.208761 588.000000
14.228244 612.000000
14.247726 601.000000
14.267208 596.000000
14.286691 620.000000
14.306173 619.000000
14.325656 573.000000
14.345138 607.000000
14.364620 591.000000
14.384103 640.000000
14.403585 643.000000
14.423067 628.000000
14.442550 569.000000
14.462032 601.000000
14.481515 625.000000
14.500997 578.000000
14.520479 637.000000
14.539962 638.000000
14.559444 610.000000
14.578926 579.000000
14.598409 622.000000
14.617891 629.000000
14.637373 583.000000
14.656856 617.000000
14.676338 591.000000
14.695821 607.000000
14.715303 603.000000
14.734785 656.000000
14.754268 597.000000
14.773750 612.000000
14.793232 597.000000
14.812715 614.000000
14.832197 602.000000
14.851680 622.000000
14.871162 676.000000
14.890644 619.000000
14.910127 579.000000
14.929609 575.000000
14.949091 637.000000
14.968574 613.000000
14.988056 612.000000
15.007538 603.000000
15.027021 574.000000
15.046503 613.000000
15.065986 596.000000
15.085468 604.000000
15.104950 626.000000
15.124433 621.000000
15.143915 564.000000
15.163397 581.000000
15.182880 626.000000
15.202362 580.000000
15.221845 648.000000
15.241327 580.000000
15.260809 606.000000
15.280292 617.000000
15.299774 608.000000
15.319256 605.000000
15.338739 617.000000
15.358221 633.000000
15.377704 621.000000
15.397186 660.000000
15.416668 605.000000
15.436151 643.000000
15.455633 590.000000
15.475115 626.000000
15.494598 611.000000
15.514080 637.000000
15.533562 604.000000
15.553045 634.000000
15.572527 652.000000
15.592010 574.000000
15.611492 579.000000
15.630974 622.000000
15.650457 606.000000
15.669939 616.000000
15.689421 657.000000
15.708904 635.000000
15.728386 530.000000
15.747869 577.000000
15.767351 603.000000
15.786833 614.000000
15.806316 634.000000
15.825798 614.000000
15.845280 597.000000
15.864763 628.000000
15.884245 587.000000
15.903727 562.000000
15.923210 653.000000
15.942692 586.000000
15.962175 642.000000
15.981657 612.000000
16.001139 606.000000
16.020622 572.000000
16.040104 614.000000
16.059586 635.000000
16.079069 587.000000
16.098551 590.000000
16.118034 578.000000
16.137516 582.000000
16.156998 632.000000
16.176481 570.000000
16.195963 622.000000
16.215445 618.000000
16.234928 613.000000
16.254410 612.000000
16.273892 554.000000
16.293375 643.000000
16.312857 590.000000
16.332340 652.000000
16.351822 599.000000
16.371304 608.000000
16.390787 643.000000
16.410269 587.000000
16.429751 625.000000
16.449234 590.000000
16.468716 572.000000
16.488199 598.000000
16.507681 623.000000
16.527163 636.000000
16.546646 605.000000
16.566128 629.000000
16.585610 619.000000
16.605093 577.000000
16.624575 582.000000
16.644057 556.000000
16.663540 617.000000
16.683022 596.000000
16.702505 602.000000
16.721987 598.000000
16.741469 596.000000
16.760952 605.000000
16.780434 570.000000
16.799916 593.000000
16.819399 615.000000
16.838881 596.000000
16.858364 652.000000
16.877846 634.000000
16.897328 580.000000
16.916811 633.000000
16.936293 631.000000
16.955775 623.000000
16.975258 595.000000
16.994740 548.000000
17.014222 610.000000
17.033705 581.000000
17.053187 603.000000
17.072670 607.000000
17.092152 606.000000
17.111634 615.000000
17.131117 550.000000
17.150599 602.000000
17.170081 587.000000
17.189564 616.000000
17.209046 618.000000
17.228529 595.000000
17.248011 625.000000
17.267493 584.000000
17.286976 573.000000
17.306458 612.000000
17.325940 565.000000
17.345423 603.000000
17.364905 605.000000
17.384388 642.000000
17.403870 590.000000
17.423352 610.000000
17.442835 591.000000
17.462317 605.000000
17.481799 583.000000
17.501282 625.000000
17.520764 575.000000
17.540246 608.000000
17.559729 656.000000
17.579211 603.000000
17.598694 562.000000
17.618176 592.000000
17.637658 591.000000
17.657141 607.000000
17.676623 607.000000
17.696105 624.000000
17.715588 647.000000
17.735070 597.000000
17.754553 577.000000
17.774035 582.000000
17.793517 573.000000
17.813000 602.000000
17.832482 587.000000
17.851964 572.000000
17.871447 610.000000
17.890929 573.000000
17.910411 592.000000
17.929894 570.000000
17.949376 586.000000
17.968859 636.000000
17.988341 639.000000
18.007823 568.000000
18.027306 578.000000
18.046788 615.000000
18.066270 571.000000
18.085753 618.000000
18.105235 583.000000
18.124718 572.000000
18.144200 610.000000
18.163682 607.000000
18.183165 589.000000
18.202647 590.000000
18.222129 591.000000
18.241612 581.000000
18.261094 616.000000
18.280576 591.000000
18.300059 611.000000
18.319541 603.000000
18.339024 645.000000
18.358506 587.000000
18.377988 581.000000
18.397471 584.000000
18.416953 537.000000
18.436435 582.000000
18.455918 609.000000
18.475400 618.000000
18.494883 616.000000
18.514365 606.000000
18.533847 604.000000
18.553330 606.000000
18.572812 573.000000
18.592294 596.000000
18.611777 611.000000
18.631259 594.000000
18.650741 596.000000
18.670224 607.000000
18.689706 588.000000
18.709189 619.000000
18.728671 563.000000
18.748153 599.000000
18.767636 607.000000
18.787118 590.000000
18.806600 612.000000
18.826083 554.000000
18.845565 590.000000
18.865048 609.000000
18.884530 661.000000
18.904012 606.000000
18.923495 612.000000
18.942977 579.000000
18.962459 578.000000
18.981942 590.000000
19.001424 634.000000
19.020907 597.000000
19.040389 591.000000
19.059871 573.000000
19.079354 572.000000
19.098836 602.000000
19.118318 605.000000
19.137801 582.000000
19.157283 585.000000
19.176765 584.000000
19.196248 614.000000
19.215730 602.000000
19.235213 587.000000
19.254695 600.000000
19.274177 636.000000
19.293660 596.000000
19.313142 592.000000
19.332624 626.000000
19.352107 592.000000
19.371589 648.000000
19.391072 579.000000
19.410554 573.000000
19.430036 586.000000
19.449519 585.000000
19.469001 613.000000
19.488483 608.000000
19.507966 609.000000
19.527448 579.000000
19.546930 620.000000
19.566413 576.000000
19.585895 595.000000
19.605378 582.000000
19.624860 589.000000
19.644342 639.000000
19.663825 619.000000
19.683307 622.000000
19.702789 585.000000
19.722272 565.000000
19.741754 577.000000
19.761237 622.000000
19.780719 590.000000
19.800201 596.000000
19.819684 568.000000
19.839166 550.000000
19.858648 575.000000
19.878131 610.000000
19.897613 626.000000
19.917095 663.000000
19.936578 617.000000
19.956060 616.000000
19.975543 613.000000
19.995025 577.000000
20.014507 613.000000
20.033990 590.000000
20.053472 589.000000
20.072954 590.000000
20.092437 606.000000
20.111919 576.000000
20.131402 593.000000
20.150884 567.000000
20.170366 630.000000
20.189849 596.000000
20.209331 594.000000
20.228813 605.000000
20.248296 618.000000
20.267778 590.000000
20.287260 599.000000
20.306743 626.000000
20.326225 612.000000
20.345708 632.000000
20.365190 641.000000
20.384672 605.000000
20.404155 588.000000
20.423637 599.000000
20.443119 636.000000
20.462602 598.000000
20.482084 595.000000
20.501567 594.000000
20.521049 579.000000
20.540531 637.000000
20.560014 643.000000
20.579496 611.000000
20.598978 638.000000
20.618461 637.000000
20.637943 612.000000
20.657426 552.000000
20.676908 629.000000
20.696390 579.000000
20.715873 623.000000
20.735355 617.000000
20.754837 626.000000
20.774320 602.000000
20.793802 631.000000
20.813284 552.000000
20.832767 588.000000
20.852249 612.000000
20.871732 650.000000
20.891214 639.000000
20.910696 599.000000
20.930179 572.000000
20.949661 586.000000
20.969143 587.000000
20.988626 610.000000
21.008108 613.000000
21.027591 633.000000
21.047073 590.000000
21.066555 610.000000
21.086038 606.000000
21.105520 599.000000
21.125002 607.000000
21.144485 577.000000
21.163967 596.000000
21.183449 612.000000
21.202932 589.000000
21.222414 613.000000
21.241897 623.000000
21.261379 609.000000
21.280861 576.000000
21.300344 610.000000
21.319826 560.000000
21.339308 606.000000
21.358791 629.000000
21.378273 583.000000
21.397756 628.000000
21.417238 632.000000
21.436720 612.000000
21.456203 589.000000
21.475685 587.000000
21.495167 594.000000
21.514650 623.000000
21.534132 599.000000
21.553614 644.000000
21.573097 633.000000
21.592579 595.000000
21.612062 634.000000
21.631544 652.000000
21.651026 586.000000
21.670509 624.000000
21.689991 621.000000
21.709473 578.000000
21.728956 623.000000
21.748438 618.000000
21.767921 644.000000
21.787403 578.000000
21.806885 611.000000
21.826368 582.000000
21.845850 609.000000
21.865332 595.000000
21.884815 611.000000
21.904297 607.000000
21.923779 641.000000
21.943262 592.000000
21.962744 644.000000
21.982227 636.000000
22.001709 624.000000
22.021191 629.000000
22.040674 613.000000
22.060156 621.000000
22.079638 609.000000
22.099121 637.000000
22.118603 589.000000
22.138086 550.000000
22.157568 567.000000
22.177050 637.000000
22.196533 630.000000
22.216015 648.000000
22.235497 599.000000
22.254980 603.000000
22.274462 609.000000
22.293945 590.000000
22.313427 607.000000
22.332909 601.000000
22.352392 645.000000
22.371874 595.000000
22.391356 636.000000
22.410839 575.000000
22.430321 618.000000
22.449803 616.000000
22.469286 580.000000
22.488768 579.000000
22.508251 562.000000
22.527733 573.000000
22.547215 618.000000
22.566698 595.000000
22.586180 624.000000
22.605662 646.000000
22.625145 647.000000
22.644627 609.000000
22.664110 609.000000
22.683592 544.000000
22.703074 557.000000
22.722557 566.000000
22.742039 591.000000
22.761521 642.000000
22.781004 546.000000
22.800486 562.000000
22.819968 635.000000
22.839451 630.000000
22.858933 616.000000
22.878416 624.000000
22.897898 602.000000
22.917380 602.000000
22.936863 643.000000
22.956345 597.000000
22.975827 638.000000
22.995310 654.000000
23.014792 636.000000
23.034275 603.000000
23.053757 647.000000
23.073239 627.000000
23.092722 617.000000
23.112204 630.000000
23.131686 648.000000
23.151169 616.000000
23.170651 626.000000
23.190133 614.000000
23.209616 649.000000
23.229098 607.000000
23.248581 611.000000
23.268063 635.000000
23.287545 597.000000
23.307028 593.000000
23.326510 594.000000
23.345992 609.000000
23.365475 568.000000
23.384957 586.000000
23.404440 656.000000
23.423922 658.000000
23.443404 621.000000
23.462887 626.000000
23.482369 641.000000
23.501851 604.000000
23.521334 621.000000
23.540816 572.000000
23.560298 609.000000
23.579781 625.000000
23.599263 607.000000
23.618746 594.000000
23.638228 562.000000
23.657710 567.000000
23.677193 619.000000
23.696675 578.000000
23.716157 580.000000
23.735640 626.000000
23.755122 662.000000
23.774605 584.000000
23.794087 625.000000
23.813569 604.000000
23.833052 622.000000
23.852534 617.000000
23.872016 659.000000
23.891499 636.000000
23.910981 622.000000
23.930463 634.000000
23.949946 627.000000
23.969428 596.000000
23.988911 641.000000
24.008393 608.000000
24.027875 676.000000
24.047358 666.000000
24.066840 616.000000
24.086322 635.000000
24.105805 658.000000
24.125287 603.000000
24.144770 626.000000
24.164252 643.000000
24.183734 628.000000
24.203217 596.000000
24.222699 599.000000
24.242181 590.000000
24.261664 643.000000
24.281146 650.000000
24.300629 664.000000
24.320111 616.000000
24.339593 603.000000
24.359076 611.000000
24.378558 594.000000
24.398040 663.000000
24.417523 645.000000
24.437005 615.000000
24.456487 655.000000
24.475970 609.000000
24.495452 584.000000
24.514935 644.000000
24.534417 615.000000
24.553899 597.000000
24.573382 572.000000
24.592864 613.000000
24.612346 595.000000
24.631829 618.000000
24.651311 584.000000
24.670794 613.000000
24.690276 610.000000
24.709758 590.000000
24.729241 637.000000
24.748723 607.000000
24.768205 627.000000
24.787688 634.000000
24.807170 644.000000
24.826652 595.000000
24.846135 604.000000
24.865617 578.000000
24.885100 641.000000
24.904582 590.000000
24.924064 629.000000
24.943547 586.000000
24.963029 592.000000
24.982511 627.000000
25.001994 612.000000
25.021476 605.000000
25.040959 552.000000
25.060441 606.000000
25.079923 543.000000
25.099406 627.000000
25.118888 615.000000
25.138370 637.000000
25.157853 650.000000
25.177335 604.000000
25.196817 594.000000
25.216300 608.000000
25.235782 620.000000
25.255265 599.000000
25.274747 627.000000
25.294229 628.000000
25.313712 577.000000
25.333194 627.000000
25.352676 583.000000
25.372159 621.000000
25.391641 613.000000
25.411124 636.000000
25.430606 611.000000
25.450088 595.000000
25.469571 605.000000
25.489053 614.000000
25.508535 629.000000
25.528018 630.000000
25.547500 672.000000
25.566982 618.000000
25.586465 614.000000
25.605947 604.000000
25.625430 602.000000
25.644912 597.000000
25.664394 642.000000
25.683877 651.000000
25.703359 610.000000
25.722841 600.000000
25.742324 624.000000
25.761806 579.000000
25.781289 617.000000
25.800771 600.000000
25.820253 635.000000
25.839736 624.000000
25.859218 659.000000
25.878700 590.000000
25.898183 618.000000
25.917665 663.000000
25.937148 638.000000
25.956630 589.000000
25.976112 582.000000
25.995595 644.000000
26.015077 610.000000
26.034559 599.000000
26.054042 632.000000
26.073524 595.000000
26.093006 611.000000
26.112489 610.000000
26.131971 631.000000
26.151454 647.000000
26.170936 630.000000
26.190418 617.000000
26.209901 611.000000
26.229383 626.000000
26.248865 591.000000
26.268348 600.000000
26.287830 614.000000
26.307313 626.000000
26.326795 603.000000
26.346277 617.000000
26.365760 590.000000
26.385242 583.000000
26.404724 660.000000
26.424207 588.000000
26.443689 637.000000
26.463171 651.000000
26.482654 623.000000
26.502136 621.000000
26.521619 581.000000
26.541101 655.000000
26.560583 646.000000
26.580066 618.000000
26.599548 605.000000
26.619030 622.000000
26.638513 654.000000
26.657995 597.000000
26.677478 604.000000
26.696960 599.000000
26.716442 661.000000
26.735925 642.000000
26.755407 593.000000
26.774889 635.000000
26.794372 665.000000
26.813854 619.000000
26.833336 617.000000
26.852819 635.000000
26.872301 637.000000
26.891784 620.000000
26.911266 607.000000
26.930748 633.000000
26.950231 615.000000
26.969713 608.000000
26.989195 609.000000
27.008678 594.000000
27.028160 656.000000
27.047643 639.000000
27.067125 594.000000
27.086607 594.000000
27.106090 630.000000
27.125572 649.000000
27.145054 583.000000
27.164537 616.000000
27.184019 622.000000
27.203501 629.000000
27.222984 679.000000
27.242466 607.000000
27.261949 621.000000
27.281431 629.000000
27.300913 582.000000
27.320396 592.000000
27.339878 588.000000
27.359360 615.000000
27.378843 626.000000
27.398325 604.000000
27.417808 678.000000
27.437290 583.000000
27.456772 640.000000
27.476255 627.000000
27.495737 594.000000
27.515219 595.000000
27.534702 620.000000
27.554184 627.000000
27.573667 614.000000
27.593149 621.000000
27.612631 600.000000
27.632114 656.000000
27.651596 572.000000
27.671078 655.000000
27.690561 625.000000
27.710043 673.000000
27.729525 629.000000
27.749008 623.000000
27.768490 583.000000
27.787973 608.000000
27.807455 653.000000
27.826937 613.000000
27.846420 647.000000
27.865902 654.000000
27.885384 666.000000
27.904867 591.000000
27.924349 616.000000
27.943832 623.000000
27.963314 603.000000
27.982796 561.000000
28.002279 657.000000
28.021761 623.000000
28.041243 652.000000
28.060726 622.000000
28.080208 604.000000
28.099690 612.000000
28.119173 618.000000
28.138655 606.000000
28.158138 603.000000
28.177620 639.000000
28.197102 645.000000
28.216585 626.000000
28.236067 639.000000
28.255549 659.000000
28.275032 617.000000
28.294514 653.000000
28.313997 656.000000
28.333479 681.000000
28.352961 648.000000
28.372444 719.000000
28.391926 631.000000
28.411408 686.000000
28.430891 682.000000
28.450373 812.000000
28.469855 1050.000000
28.489338 1612.000000
28.508820 2111.000000
28.528303 1803.000000
28.547785 1353.000000
28.567267 1257.000000
28.586750 1378.000000
28.606232 1179.000000
28.625714 785.000000
28.645197 727.000000
28.664679 654.000000
28.684162 658.000000
28.703644 659.000000
28.723126 634.000000
28.742609 617.000000
28.762091 621.000000
28.781573 638.000000
28.801056 617.000000
28.820538 638.000000
28.840020 667.000000
28.859503 652.000000
28.878985 637.000000
28.898468 670.000000
28.917950 636.000000
28.937432 605.000000
28.956915 598.000000
28.976397 641.000000
28.995879 635.000000
29.015362 624.000000
29.034844 579.000000
29.054327 629.000000
29.073809 635.000000
29.093291 663.000000
29.112774 635.000000
29.132256 607.000000
29.151738 670.000000
29.171221 643.000000
29.190703 623.000000
29.210185 623.000000
29.229668 636.000000
29.249150 627.000000
29.268633 631.000000
29.288115 646.000000
29.307597 612.000000
29.327080 626.000000
29.346562 616.000000
29.366044 623.000000
29.385527 649.000000
29.405009 651.000000
29.424492 648.000000
29.443974 600.000000
29.463456 658.000000
29.482939 648.000000
29.502421 638.000000
29.521903 607.000000
29.541386 610.000000
29.560868 630.000000
29.580351 624.000000
29.599833 561.000000
29.619315 629.000000
29.638798 600.000000
29.658280 628.000000
29.677762 583.000000
29.697245 637.000000
29.716727 651.000000
29.736209 625.000000
29.755692 629.000000
29.775174 627.000000
29.794657 668.000000
29.814139 665.000000
29.833621 640.000000
29.853104 613.000000
29.872586 670.000000
29.892068 639.000000
29.911551 621.000000
29.931033 618.000000
29.950516 606.000000
29.969998 677.000000
29.989480 602.000000
30.008963 634.000000
30.028445 654.000000
30.047927 653.000000
30.067410 594.000000
30.086892 673.000000
30.106374 627.000000
30.125857 612.000000
30.145339 595.000000
30.164822 588.000000
30.184304 676.000000
30.203786 609.000000
30.223269 577.000000
30.242751 628.000000
30.262233 581.000000
30.281716 617.000000
30.301198 629.000000
30.320681 644.000000
30.340163 626.000000
30.359645 638.000000
30.379128 650.000000
30.398610 617.000000
30.418092 630.000000
30.437575 656.000000
30.457057 622.000000
30.476539 623.000000
30.496022 653.000000
30.515504 628.000000
30.534987 660.000000
30.554469 606.000000
30.573951 638.000000
30.593434 633.000000
30.612916 599.000000
30.632398 662.000000
30.651881 699.000000
30.671363 630.000000
30.690846 623.000000
30.710328 659.000000
30.729810 589.000000
30.749293 619.000000
30.768775 666.000000
30.788257 642.000000
30.807740 638.000000
30.827222 598.000000
30.846704 633.000000
30.866187 664.000000
30.885669 635.000000
30.905152 646.000000
30.924634 626.000000
30.944116 656.000000
30.963599 644.000000
30.983081 613.000000
31.002563 650.000000
31.022046 649.000000
31.041528 619.000000
31.061011 643.000000
31.080493 678.000000
31.099975 664.000000
31.119458 649.000000
31.138940 654.000000
31.158422 643.000000
31.177905 638.000000
31.197387 652.000000
31.216870 628.000000
31.236352 619.000000
31.255834 649.000000
31.275317 644.000000
31.294799 616.000000
31.314281 606.000000
31.333764 586.000000
31.353246 629.000000
31.372728 574.000000
31.392211 667.000000
31.411693 623.000000
31.431176 630.000000
31.450658 595.000000
31.470140 614.000000
31.489623 620.000000
31.509105 638.000000
31.528587 607.000000
31.548070 609.000000
31.567552 653.000000
31.587035 632.000000
31.606517 624.000000
31.625999 599.000000
31.645482 628.000000
31.664964 616.000000
31.684446 701.000000
31.703929 621.000000
31.723411 651.000000
31.742893 647.000000
31.762376 639.000000
31.781858 612.000000
31.801341 646.000000
31.820823 663.000000
31.840305 660.000000
31.859788 649.000000
31.879270 621.000000
31.898752 610.000000
31.918235 604.000000
31.937717 633.000000
31.957200 644.000000
31.976682 653.000000
31.996164 672.000000
32.015647 628.000000
32.035129 630.000000
32.054611 671.000000
32.074094 661.000000
32.093576 615.000000
32.113058 642.000000
32.132541 645.000000
32.152023 641.000000
32.171506 633.000000
32.190988 608.000000
32.210470 661.000000
32.229953 618.000000
32.249435 644.000000
32.268917 590.000000
32.288400 647.000000
32.307882 616.000000
32.327365 642.000000
32.346847 590.000000
32.366329 710.000000
32.385812 675.000000
32.405294 653.000000
32.424776 632.000000
32.444259 682.000000
32.463741 634.000000
32.483223 611.000000
32.502706 620.000000
32.522188 679.000000
32.541671 631.000000
32.561153 661.000000
32.580635 628.000000
32.600118 624.000000
32.619600 661.000000
32.639082 648.000000
32.658565 610.000000
32.678047 653.000000
32.697530 583.000000
32.717012 669.000000
32.736494 629.000000
32.755977 742.000000
32.775459 623.000000
32.794941 639.000000
32.814424 643.000000
32.833906 671.000000
32.853389 648.000000
32.872871 713.000000
32.892353 705.000000
32.911836 752.000000
32.931318 748.000000
32.950800 816.000000
32.970283 897.000000
32.989765 1300.000000
33.009247 2117.000000
33.028730 4139.000000
33.048212 5006.000000
33.067695 2576.000000
33.087177 1630.000000
33.106659 2140.000000
33.126142 2921.000000
33.145624 2054.000000
33.165106 1101.000000
33.184589 855.000000
33.204071 760.000000
33.223554 714.000000
33.243036 701.000000
33.262518 669.000000
33.282001 686.000000
33.301483 660.000000
33.320965 690.000000
33.340448 701.000000
33.359930 696.000000
33.379412 653.000000
33.398895 689.000000
33.418377 709.000000
33.437860 604.000000
33.457342 690.000000
33.476824 690.000000
33.496307 692.000000
33.515789 649.000000
33.535271 650.000000
33.554754 667.000000
33.574236 634.000000
33.593719 662.000000
33.613201 652.000000
33.632683 633.000000
33.652166 664.000000
33.671648 630.000000
33.691130 695.000000
33.710613 651.000000
33.730095 628.000000
33.749577 631.000000
33.769060 686.000000
33.788542 677.000000
33.808025 603.000000
33.827507 653.000000
33.846989 650.000000
33.866472 655.000000
33.885954 633.000000
33.905436 653.000000
33.924919 658.000000
33.944401 642.000000
33.963884 641.000000
33.983366 636.000000
34.002848 600.000000
34.022331 624.000000
34.041813 669.000000
34.061295 659.000000
34.080778 687.000000
34.100260 622.000000
34.119742 664.000000
34.139225 617.000000
34.158707 664.000000
34.178190 646.000000
34.197672 635.000000
34.217154 689.000000
34.236637 651.000000
34.256119 634.000000
34.275601 634.000000
34.295084 646.000000
34.314566 608.000000
34.334049 651.000000
34.353531 627.000000
34.373013 636.000000
34.392496 632.000000
34.411978 613.000000
34.431460 637.000000
34.450943 671.000000
34.470425 600.000000
34.489908 611.000000
34.509390 617.000000
34.528872 670.000000
34.548355 625.000000
34.567837 628.000000
34.587319 635.000000
34.606802 673.000000
34.626284 656.000000
34.645766 578.000000
34.665249 622.000000
34.684731 620.000000
34.704214 619.000000
34.723696 623.000000
34.743178 647.000000
34.762661 633.000000
34.782143 617.000000
34.801625 713.000000
34.821108 706.000000
34.840590 662.000000
34.860073 631.000000
34.879555 667.000000
34.899037 657.000000
34.918520 683.000000
34.938002 636.000000
34.957484 674.000000
34.976967 674.000000
34.996449 671.000000
35.015931 646.000000
35.035414 664.000000
35.054896 689.000000
35.074379 619.000000
35.093861 648.000000
35.113343 650.000000
35.132826 593.000000
35.152308 625.000000
35.171790 625.000000
35.191273 696.000000
35.210755 656.000000
35.230238 655.000000
35.249720 661.000000
35.269202 658.000000
35.288685 640.000000
35.308167 659.000000
35.327649 682.000000
35.347132 645.000000
35.366614 637.000000
35.386096 601.000000
35.405579 667.000000
35.425061 691.000000
35.444544 682.000000
35.464026 658.000000
35.483508 619.000000
35.502991 688.000000
35.522473 640.000000
35.541955 661.000000
35.561438 607.000000
35.580920 681.000000
35.600403 696.000000
35.619885 683.000000
35.639367 644.000000
35.658850 591.000000
35.678332 634.000000
35.697814 640.000000
35.717297 619.000000
35.736779 663.000000
35.756261 596.000000
35.775744 620.000000
35.795226 686.000000
35.814709 632.000000
35.834191 619.000000
35.853673 678.000000
35.873156 648.000000
35.892638 649.000000
35.912120 665.000000
35.931603 638.000000
35.951085 668.000000
35.970568 637.000000
35.990050 668.000000
36.009532 627.000000
36.029015 676.000000
36.048497 618.000000
36.067979 625.000000
36.087462 649.000000
36.106944 673.000000
36.126426 661.000000
36.145909 692.000000
36.165391 641.000000
36.184874 635.000000
36.204356 649.000000
36.223838 646.000000
36.243321 638.000000
36.262803 650.000000
36.282285 667.000000
36.301768 665.000000
36.321250 610.000000
36.340733 635.000000
36.360215 670.000000
36.379697 612.000000
36.399180 630.000000
36.418662 655.000000
36.438144 650.000000
36.457627 634.000000
36.477109 699.000000
36.496592 659.000000
36.516074 626.000000
36.535556 676.000000
36.555039 664.000000
36.574521 661.000000
36.594003 640.000000
36.613486 653.000000
36.632968 644.000000
36.652450 630.000000
36.671933 675.000000
36.691415 648.000000
36.710898 616.000000
36.730380 678.000000
36.749862 650.000000
36.769345 641.000000
36.788827 683.000000
36.808309 649.000000
36.827792 667.000000
36.847274 688.000000
36.866757 695.000000
36.886239 691.000000
36.905721 728.000000
36.925204 724.000000
36.944686 728.000000
36.964168 718.000000
36.983651 752.000000
37.003133 821.000000
37.022615 937.000000
37.042098 1407.000000
37.061580 1825.000000
37.081063 2261.000000
37.100545 1588.000000
37.120027 1124.000000
37.139510 1112.000000
37.158992 1335.000000
37.178474 1389.000000
37.197957 1137.000000
37.217439 822.000000
37.236922 738.000000
37.256404 701.000000
37.275886 658.000000
37.295369 685.000000
37.314851 705.000000
37.334333 685.000000
37.353816 693.000000
37.373298 666.000000
37.392780 657.000000
37.412263 672.000000
37.431745 666.000000
37.451228 637.000000
37.470710 617.000000
37.490192 635.000000
37.509675 692.000000
37.529157 620.000000
37.548639 633.000000
37.568122 615.000000
37.587604 675.000000
37.607087 670.000000
37.626569 649.000000
37.646051 633.000000
37.665534 673.000000
37.685016 639.000000
37.704498 638.000000
37.723981 648.000000
37.743463 696.000000
37.762945 622.000000
37.782428 599.000000
37.801910 715.000000
37.821393 637.000000
37.840875 659.000000
37.860357 658.000000
37.879840 617.000000
37.899322 666.000000
37.918804 674.000000
37.938287 656.000000
37.957769 639.000000
37.977252 615.000000
37.996734 638.000000
38.016216 655.000000
38.035699 670.000000
38.055181 646.000000
38.074663 642.000000
38.094146 667.000000
38.113628 680.000000
38.133111 655.000000
38.152593 664.000000
38.172075 636.000000
38.191558 650.000000
38.211040 647.000000
38.230522 702.000000
38.250005 630.000000
38.269487 655.000000
38.288969 613.000000
38.308452 688.000000
38.327934 668.000000
38.347417 693.000000
38.366899 678.000000
38.386381 661.000000
38.405864 623.000000
38.425346 701.000000
38.444828 657.000000
38.464311 635.000000
38.483793 684.000000
38.503276 639.000000
38.522758 664.000000
38.542240 675.000000
38.561723 680.000000
38.581205 657.000000
38.600687 636.000000
38.620170 631.000000
38.639652 719.000000
38.659134 667.000000
38.678617 635.000000
38.698099 646.000000
38.717582 627.000000
38.737064 690.000000
38.756546 621.000000
38.776029 663.000000
38.795511 723.000000
38.814993 669.000000
38.834476 656.000000
38.853958 678.000000
38.873441 633.000000
38.892923 639.000000
38.912405 685.000000
38.931888 705.000000
38.951370 641.000000
38.970852 651.000000
38.990335 672.000000
39.009817 671.000000
39.029299 724.000000
39.048782 676.000000
39.068264 699.000000
39.087747 675.000000
39.107229 645.000000
39.126711 684.000000
39.146194 670.000000
39.165676 634.000000
39.185158 668.000000
39.204641 627.000000
39.224123 630.000000
39.243606 687.000000
39.263088 697.000000
39.282570 692.000000
39.302053 701.000000
39.321535 668.000000
39.341017 690.000000
39.360500 634.000000
39.379982 708.000000
39.399464 659.000000
39.418947 644.000000
39.438429 683.000000
39.457912 657.000000
39.477394 666.000000
39.496876 677.000000
39.516359 703.000000
39.535841 671.000000
39.555323 623.000000
39.574806 646.000000
39.594288 674.000000
39.613771 668.000000
39.633253 666.000000
39.652735 713.000000
39.672218 661.000000
39.691700 655.000000
39.711182 631.000000
39.730665 699.000000
39.750147 657.000000
39.769630 672.000000
39.789112 686.000000
39.808594 690.000000
39.828077 645.000000
39.847559 671.000000
39.867041 631.000000
39.886524 672.000000
39.906006 667.000000
39.925488 668.000000
39.944971 706.000000
39.964453 671.000000
39.983936 638.000000
40.003418 659.000000
40.022900 677.000000
40.042383 670.000000
40.061865 657.000000
40.081347 656.000000
40.100830 629.000000
40.120312 629.000000
40.139795 664.000000
40.159277 662.000000
40.178759 631.000000
40.198242 662.000000
40.217724 621.000000
40.237206 701.000000
40.256689 678.000000
40.276171 644.000000
40.295653 679.000000
40.315136 678.000000
40.334618 635.000000
40.354101 691.000000
40.373583 675.000000
40.393065 678.000000
40.412548 646.000000
40.432030 668.000000
40.451512 724.000000
40.470995 681.000000
40.490477 689.000000
40.509960 668.000000
40.529442 681.000000
40.548924 671.000000
40.568407 680.000000
40.587889 696.000000
40.607371 659.000000
40.626854 721.000000
40.646336 752.000000
40.665818 707.000000
40.685301 759.000000
40.704783 873.000000
40.724266 1210.000000
40.743748 1732.000000
40.763230 2543.000000
40.782713 2151.000000
40.802195 1269.000000
40.821677 1043.000000
40.841160 1154.000000
40.860642 1542.000000
40.880125 1528.000000
40.899607 1119.000000
40.919089 832.000000
40.938572 781.000000
40.958054 711.000000
40.977536 660.000000
40.997019 722.000000
41.016501 678.000000
41.035983 706.000000
41.055466 706.000000
41.074948 713.000000
41.094431 721.000000
41.113913 705.000000
41.133395 712.000000
41.152878 675.000000
41.172360 722.000000
41.191842 687.000000
41.211325 663.000000
41.230807 731.000000
41.250290 667.000000
41.269772 687.000000
41.289254 677.000000
41.308737 695.000000
41.328219 697.000000
41.347701 632.000000
41.367184 710.000000
41.386666 601.000000
41.406149 660.000000
41.425631 670.000000
41.445113 680.000000
41.464596 674.000000
41.484078 623.000000
41.503560 698.000000
41.523043 692.000000
41.542525 680.000000
41.562007 680.000000
41.581490 732.000000
41.600972 665.000000
41.620455 660.000000
41.639937 720.000000
41.659419 633.000000
41.678902 655.000000
41.698384 719.000000
41.717866 686.000000
41.737349 710.000000
41.756831 692.000000
41.776314 641.000000
41.795796 585.000000
41.815278 667.000000
41.834761 695.000000
41.854243 686.000000
41.873725 695.000000
41.893208 676.000000
41.912690 710.000000
41.932172 661.000000
41.951655 688.000000
41.971137 719.000000
41.990620 715.000000
42.010102 670.000000
42.029584 702.000000
42.049067 653.000000
42.068549 693.000000
42.088031 667.000000
42.107514 677.000000
42.126996 697.000000
42.146479 673.000000
42.165961 687.000000
42.185443 686.000000
42.204926 689.000000
42.224408 699.000000
42.243890 683.000000
42.263373 681.000000
42.282855 617.000000
42.302337 657.000000
42.321820 684.000000
42.341302 659.000000
42.360785 674.000000
42.380267 681.000000
42.399749 639.000000
42.419232 662.000000
42.438714 621.000000
42.458196 685.000000
42.477679 680.000000
42.497161 664.000000
42.516644 691.000000
42.536126 642.000000
42.555608 684.000000
42.575091 657.000000
42.594573 669.000000
42.614055 702.000000
42.633538 664.000000
42.653020 666.000000
42.672502 683.000000
42.691985 678.000000
42.711467 692.000000
42.730950 652.000000
42.750432 666.000000
42.769914 709.000000
42.789397 701.000000
42.808879 675.000000
42.828361 724.000000
42.847844 664.000000
42.867326 673.000000
42.886809 720.000000
42.906291 670.000000
42.925773 700.000000
42.945256 715.000000
42.964738 688.000000
42.984220 673.000000
43.003703 704.000000
43.023185 704.000000
43.042667 697.000000
43.062150 686.000000
43.081632 669.000000
43.101115 681.000000
43.120597 683.000000
43.140079 667.000000
43.159562 691.000000
43.179044 673.000000
43.198526 713.000000
43.218009 686.000000
43.237491 668.000000
43.256974 662.000000
43.276456 612.000000
43.295938 690.000000
43.315421 658.000000
43.334903 650.000000
43.354385 672.000000
43.373868 707.000000
43.393350 693.000000
43.412833 693.000000
43.432315 707.000000
43.451797 684.000000
43.471280 678.000000
43.490762 679.000000
43.510244 692.000000
43.529727 687.000000
43.549209 706.000000
43.568691 740.000000
43.588174 691.000000
43.607656 678.000000
43.627139 683.000000
43.646621 701.000000
43.666103 684.000000
43.685586 675.000000
43.705068 681.000000
43.724550 712.000000
43.744033 712.000000
43.763515 702.000000
43.782998 675.000000
43.802480 661.000000
43.821962 645.000000
43.841445 642.000000
43.860927 654.000000
43.880409 637.000000
43.899892 672.000000
43.919374 676.000000
43.938856 700.000000
43.958339 725.000000
43.977821 668.000000
43.997304 679.000000
44.016786 678.000000
44.036268 665.000000
44.055751 679.000000
44.075233 688.000000
44.094715 657.000000
44.114198 696.000000
44.133680 696.000000
44.153163 650.000000
44.172645 639.000000
44.192127 677.000000
44.211610 715.000000
44.231092 673.000000
44.250574 694.000000
44.270057 668.000000
44.289539 650.000000
44.309021 656.000000
44.328504 680.000000
44.347986 725.000000
44.367469 666.000000
44.386951 673.000000
44.406433 688.000000
44.425916 673.000000
44.445398 655.000000
44.464880 701.000000
44.484363 656.000000
44.503845 682.000000
44.523328 664.000000
44.542810 653.000000
44.562292 701.000000
44.581775 682.000000
44.601257 703.000000
44.620739 654.000000
44.640222 706.000000
44.659704 665.000000
44.679186 662.000000
44.698669 640.000000
44.718151 652.000000
44.737634 643.000000
44.757116 690.000000
44.776598 711.000000
44.796081 671.000000
44.815563 693.000000
44.835045 710.000000
44.854528 700.000000
44.874010 684.000000
44.893493 665.000000
44.912975 677.000000
44.932457 683.000000
44.951940 670.000000
44.971422 660.000000
44.990904 663.000000
45.010387 659.000000
45.029869 687.000000
45.049352 689.000000
45.068834 675.000000
45.088316 639.000000
45.107799 681.000000
45.127281 677.000000
45.146763 692.000000
45.166246 642.000000
45.185728 647.000000
45.205210 717.000000
45.224693 679.000000
45.244175 708.000000
45.263658 653.000000
45.283140 665.000000
45.302622 684.000000
45.322105 699.000000
45.341587 645.000000
45.361069 736.000000
45.380552 672.000000
45.400034 684.000000
45.419517 617.000000
45.438999 659.000000
45.458481 646.000000
45.477964 663.000000
45.497446 657.000000
45.516928 703.000000
45.536411 650.000000
45.555893 663.000000
45.575375 652.000000
45.594858 670.000000
45.614340 707.000000
45.633823 681.000000
45.653305 709.000000
45.672787 669.000000
45.692270 722.000000
45.711752 671.000000
45.731234 653.000000
45.750717 689.000000
45.770199 659.000000
45.789682 686.000000
45.809164 700.000000
45.828646 682.000000
45.848129 687.000000
45.867611 691.000000
45.887093 644.000000
45.906576 711.000000
45.926058 661.000000
45.945540 699.000000
45.965023 683.000000
45.984505 622.000000
46.003988 652.000000
46.023470 727.000000
46.042952 715.000000
46.062435 704.000000
46.081917 721.000000
46.101399 697.000000
46.120882 728.000000
46.140364 682.000000
46.159847 689.000000
46.179329 713.000000
46.198811 687.000000
46.218294 677.000000
46.237776 655.000000
46.257258 682.000000
46.276741 677.000000
46.296223 668.000000
46.315705 698.000000
46.335188 693.000000
46.354670 643.000000
46.374153 644.000000
46.393635 672.000000
46.413117 688.000000
46.432600 661.000000
46.452082 709.000000
46.471564 683.000000
46.491047 688.000000
46.510529 686.000000
46.530012 678.000000
46.549494 738.000000
46.568976 696.000000
46.588459 700.000000
46.607941 669.000000
46.627423 714.000000
46.646906 695.000000
46.666388 699.000000
46.685871 664.000000
46.705353 714.000000
46.724835 693.000000
46.744318 662.000000
46.763800 651.000000
46.783282 692.000000
46.802765 688.000000
46.822247 667.000000
46.841729 619.000000
46.861212 720.000000
46.880694 686.000000
46.900177 694.000000
46.919659 695.000000
46.939141 681.000000
46.958624 696.000000
46.978106 721.000000
46.997588 647.000000
47.017071 714.000000
47.036553 722.000000
47.056036 662.000000
47.075518 703.000000
47.095000 729.000000
47.114483 741.000000
47.133965 730.000000
47.153447 702.000000
47.172930 701.000000
47.192412 725.000000
47.211894 738.000000
47.231377 748.000000
47.250859 699.000000
47.270342 774.000000
47.289824 692.000000
47.309306 787.000000
47.328789 738.000000
47.348271 759.000000
47.367753 842.000000
47.387236 1023.000000
47.406718 1518.000000
47.426201 1716.000000
47.445683 1719.000000
47.465165 1302.000000
47.484648 920.000000
47.504130 875.000000
47.523612 1063.000000
47.543095 1194.000000
47.562577 1213.000000
47.582059 1129.000000
47.601542 904.000000
47.621024 761.000000
47.640507 703.000000
47.659989 696.000000
47.679471 677.000000
47.698954 724.000000
47.718436 682.000000
47.737918 731.000000
47.757401 714.000000
47.776883 716.000000
47.796366 684.000000
47.815848 722.000000
47.835330 674.000000
47.854813 685.000000
47.874295 685.000000
47.893777 727.000000
47.913260 661.000000
47.932742 693.000000
47.952224 752.000000
47.971707 705.000000
47.991189 745.000000
48.010672 674.000000
48.030154 651.000000
48.049636 648.000000
48.069119 643.000000
48.088601 706.000000
48.108083 685.000000
48.127566 719.000000
48.147048 652.000000
48.166531 682.000000
48.186013 651.000000
48.205495 707.000000
48.224978 694.000000
48.244460 694.000000
48.263942 678.000000
48.283425 706.000000
48.302907 693.000000
48.322389 674.000000
48.341872 690.000000
48.361354 660.000000
48.380837 657.000000
48.400319 719.000000
48.419801 687.000000
48.439284 670.000000
48.458766 723.000000
48.478248 722.000000
48.497731 694.000000
48.517213 656.000000
48.536696 659.000000
48.556178 682.000000
48.575660 700.000000
48.595143 663.000000
48.614625 728.000000
48.634107 679.000000
48.653590 683.000000
48.673072 756.000000
48.692555 678.000000
48.712037 690.000000
48.731519 683.000000
48.751002 734.000000
48.770484 692.000000
48.789966 629.000000
48.809449 695.000000
48.828931 752.000000
48.848413 711.000000
48.867896 708.000000
48.887378 671.000000
48.906861 681.000000
48.926343 699.000000
48.945825 715.000000
48.965308 712.000000
48.984790 656.000000
49.004272 703.000000
49.023755 685.000000
49.043237 679.000000
49.062720 700.000000
49.082202 693.000000
49.101684 680.000000
49.121167 647.000000
49.140649 685.000000
49.160131 649.000000
49.179614 738.000000
49.199096 686.000000
49.218578 706.000000
49.238061 684.000000
49.257543 730.000000
49.277026 723.000000
49.296508 691.000000
49.315990 647.000000
49.335473 689.000000
49.354955 682.000000
49.374437 699.000000
49.393920 686.000000
49.413402 706.000000
49.432885 686.000000
49.452367 663.000000
49.471849 686.000000
49.491332 705.000000
49.510814 696.000000
49.530296 653.000000
49.549779 684.000000
49.569261 667.000000
49.588743 654.000000
49.608226 668.000000
49.627708 671.000000
49.647191 683.000000
49.666673 703.000000
49.686155 684.000000
49.705638 692.000000
49.725120 709.000000
49.744602 644.000000
49.764085 689.000000
49.783567 688.000000
49.803050 720.000000
49.822532 687.000000
49.842014 695.000000
49.861497 687.000000
49.880979 658.000000
49.900461 691.000000
49.919944 768.000000
49.939426 703.000000
49.958908 727.000000
49.978391 708.000000
49.997873 698.000000
50.017356 748.000000
50.036838 706.000000
50.056320 680.000000
50.075803 688.000000
50.095285 702.000000
50.114767 712.000000
50.134250 690.000000
50.153732 695.000000
50.173215 729.000000
50.192697 725.000000
50.212179 672.000000
50.231662 707.000000
50.251144 722.000000
50.270626 731.000000
50.290109 715.000000
50.309591 680.000000
50.329074 749.000000
50.348556 646.000000
50.368038 686.000000
50.387521 711.000000
50.407003 654.000000
50.426485 746.000000
50.445968 768.000000
50.465450 735.000000
50.484932 738.000000
50.504415 749.000000
50.523897 700.000000
50.543380 726.000000
50.562862 700.000000
50.582344 695.000000
50.601827 694.000000
50.621309 710.000000
50.640791 789.000000
50.660274 686.000000
50.679756 704.000000
50.699239 671.000000
50.718721 724.000000
50.738203 678.000000
50.757686 679.000000
50.777168 726.000000
50.796650 721.000000
50.816133 714.000000
50.835615 735.000000
50.855097 672.000000
50.874580 701.000000
50.894062 716.000000
50.913545 724.000000
50.933027 709.000000
50.952509 670.000000
50.971992 680.000000
50.991474 659.000000
51.010956 732.000000
51.030439 708.000000
51.049921 703.000000
51.069404 680.000000
51.088886 664.000000
51.108368 720.000000
51.127851 651.000000
51.147333 717.000000
51.166815 694.000000
51.186298 714.000000
51.205780 695.000000
51.225262 693.000000
51.244745 719.000000
51.264227 698.000000
51.283710 689.000000
51.303192 710.000000
51.322674 682.000000
51.342157 745.000000
51.361639 700.000000
51.381121 672.000000
51.400604 706.000000
51.420086 685.000000
51.439569 706.000000
51.459051 672.000000
51.478533 685.000000
51.498016 721.000000
51.517498 674.000000
51.536980 682.000000
51.556463 680.000000
51.575945 712.000000
51.595427 692.000000
51.614910 692.000000
51.634392 718.000000
51.653875 705.000000
51.673357 709.000000
51.692839 727.000000
51.712322 699.000000
51.731804 682.000000
51.751286 738.000000
51.770769 693.000000
51.790251 671.000000
51.809734 681.000000
51.829216 707.000000
51.848698 695.000000
51.868181 684.000000
51.887663 709.000000
51.907145 692.000000
51.926628 689.000000
51.946110 700.000000
51.965593 722.000000
51.985075 701.000000
52.004557 722.000000
52.024040 715.000000
52.043522 720.000000
52.063004 702.000000
52.082487 699.000000
52.101969 706.000000
52.121451 696.000000
52.140934 708.000000
52.160416 758.000000
52.179899 712.000000
52.199381 707.000000
52.218863 755.000000
52.238346 707.000000
52.257828 755.000000
52.277310 734.000000
52.296793 689.000000
52.316275 722.000000
52.335758 677.000000
52.355240 731.000000
52.374722 753.000000
52.394205 718.000000
52.413687 727.000000
52.433169 714.000000
52.452652 706.000000
52.472134 706.000000
52.491616 707.000000
52.511099 689.000000
52.530581 731.000000
52.550064 705.000000
52.569546 713.000000
52.589028 719.000000
52.608511 719.000000
52.627993 714.000000
52.647475 688.000000
52.666958 695.000000
52.686440 683.000000
52.705923 681.000000
52.725405 670.000000
52.744887 689.000000
52.764370 688.000000
52.783852 702.000000
52.803334 733.000000
52.822817 727.000000
52.842299 690.000000
52.861781 699.000000
52.881264 680.000000
52.900746 677.000000
52.920229 644.000000
52.939711 721.000000
52.959193 693.000000
52.978676 735.000000
52.998158 739.000000
53.017640 661.000000
53.037123 693.000000
53.056605 657.000000
53.076088 688.000000
53.095570 679.000000
53.115052 703.000000
53.134535 677.000000
53.154017 698.000000
53.173499 690.000000
53.192982 696.000000
53.212464 730.000000
53.231946 699.000000
53.251429 698.000000
53.270911 675.000000
53.290394 703.000000
53.309876 690.000000
53.329358 673.000000
53.348841 705.000000
53.368323 689.000000
53.387805 682.000000
53.407288 690.000000
53.426770 708.000000
53.446253 703.000000
53.465735 710.000000
53.485217 702.000000
53.504700 752.000000
53.524182 759.000000
53.543664 739.000000
53.563147 715.000000
53.582629 679.000000
53.602112 700.000000
53.621594 701.000000
53.641076 726.000000
53.660559 710.000000
53.680041 695.000000
53.699523 688.000000
53.719006 714.000000
53.738488 669.000000
53.757970 710.000000
53.777453 667.000000
53.796935 723.000000
53.816418 712.000000
53.835900 738.000000
53.855382 730.000000
53.874865 664.000000
53.894347 756.000000
53.913829 700.000000
53.933312 684.000000
53.952794 697.000000
53.972277 708.000000
53.991759 692.000000
54.011241 708.000000
54.030724 709.000000
54.050206 746.000000
54.069688 695.000000
54.089171 706.000000
54.108653 731.000000
54.128135 716.000000
54.147618 749.000000
54.167100 754.000000
54.186583 694.000000
54.206065 716.000000
54.225547 697.000000
54.245030 737.000000
54.264512 756.000000
54.283994 662.000000
54.303477 705.000000
54.322959 704.000000
54.342442 712.000000
54.361924 722.000000
54.381406 763.000000
54.400889 692.000000
54.420371 686.000000
54.439853 658.000000
54.459336 706.000000
54.478818 698.000000
54.498300 697.000000
54.517783 747.000000
54.537265 684.000000
54.556748 727.000000
54.576230 737.000000
54.595712 672.000000
54.615195 716.000000
54.634677 688.000000
54.654159 721.000000
54.673642 666.000000
54.693124 726.000000
54.712607 702.000000
54.732089 681.000000
54.751571 713.000000
54.771054 692.000000
54.790536 713.000000
54.810018 692.000000
54.829501 716.000000
54.848983 742.000000
54.868465 676.000000
54.887948 720.000000
54.907430 705.000000
54.926913 710.000000
54.946395 724.000000
54.965877 742.000000
54.985360 766.000000
55.004842 715.000000
55.024324 709.000000
55.043807 730.000000
55.063289 714.000000
55.082772 699.000000
55.102254 701.000000
55.121736 715.000000
55.141219 660.000000
55.160701 716.000000
55.180183 656.000000
55.199666 705.000000
55.219148 741.000000
55.238630 706.000000
55.258113 738.000000
55.277595 663.000000
55.297078 706.000000
55.316560 725.000000
55.336042 691.000000
55.355525 716.000000
55.375007 704.000000
55.394489 696.000000
55.413972 733.000000
55.433454 722.000000
55.452937 731.000000
55.472419 686.000000
55.491901 680.000000
55.511384 744.000000
55.530866 698.000000
55.550348 688.000000
55.569831 707.000000
55.589313 703.000000
55.608796 686.000000
55.628278 694.000000
55.647760 757.000000
55.667243 708.000000
55.686725 709.000000
55.706207 738.000000
55.725690 736.000000
55.745172 707.000000
55.764654 736.000000
55.784137 683.000000
55.803619 701.000000
55.823102 693.000000
55.842584 708.000000
55.862066 780.000000
55.881549 727.000000
55.901031 713.000000
55.920513 686.000000
55.939996 746.000000
55.959478 763.000000
55.978961 779.000000
55.998443 772.000000
56.017925 804.000000
56.037408 740.000000
56.056890 781.000000
56.076372 757.000000
56.095855 731.000000
56.115337 801.000000
56.134819 812.000000
56.154302 909.000000
56.173784 936.000000
56.193267 1169.000000
56.212749 1474.000000
56.232231 2137.000000
56.251714 2839.000000
56.271196 3424.000000
56.290678 2940.000000
56.310161 1838.000000
56.329643 1298.000000
56.349126 1218.000000
56.368608 1254.000000
56.388090 1559.000000
56.407573 1872.000000
56.427055 1960.000000
56.446537 1769.000000
56.466020 1231.000000
56.485502 969.000000
56.504984 834.000000
56.524467 803.000000
56.543949 798.000000
56.563432 797.000000
56.582914 727.000000
56.602396 803.000000
56.621879 728.000000
56.641361 734.000000
56.660843 764.000000
56.680326 753.000000
56.699808 680.000000
56.719291 733.000000
56.738773 744.000000
56.758255 732.000000
56.777738 762.000000
56.797220 738.000000
56.816702 738.000000
56.836185 680.000000
56.855667 725.000000
56.875149 708.000000
56.894632 728.000000
56.914114 712.000000
56.933597 725.000000
56.953079 739.000000
56.972561 757.000000
56.992044 711.000000
57.011526 746.000000
57.031008 675.000000
57.050491 738.000000
57.069973 742.000000
57.089456 726.000000
57.108938 686.000000
57.128420 697.000000
57.147903 654.000000
57.167385 738.000000
57.186867 735.000000
57.206350 755.000000
57.225832 752.000000
57.245315 731.000000
57.264797 702.000000
57.284279 755.000000
57.303762 752.000000
57.323244 685.000000
57.342726 739.000000
57.362209 709.000000
57.381691 744.000000
57.401173 680.000000
57.420656 744.000000
57.440138 741.000000
57.459621 726.000000
57.479103 778.000000
57.498585 754.000000
57.518068 726.000000
57.537550 685.000000
57.557032 723.000000
57.576515 703.000000
57.595997 761.000000
57.615480 748.000000
57.634962 706.000000
57.654444 720.000000
57.673927 696.000000
57.693409 752.000000
57.712891 700.000000
57.732374 744.000000
57.751856 700.000000
57.771338 730.000000
57.790821 711.000000
57.810303 733.000000
57.829786 693.000000
57.849268 719.000000
57.868750 717.000000
57.888233 718.000000
57.907715 740.000000
57.927197 748.000000
57.946680 700.000000
57.966162 677.000000
57.985645 714.000000
58.005127 724.000000
58.024609 718.000000
58.044092 671.000000
58.063574 723.000000
58.083056 739.000000
58.102539 693.000000
58.122021 708.000000
58.141503 725.000000
58.160986 698.000000
58.180468 688.000000
58.199951 733.000000
58.219433 751.000000
58.238915 724.000000
58.258398 686.000000
58.277880 740.000000
58.297362 672.000000
58.316845 716.000000
58.336327 709.000000
58.355810 762.000000
58.375292 732.000000
58.394774 705.000000
58.414257 737.000000
58.433739 734.000000
58.453221 706.000000
58.472704 748.000000
58.492186 688.000000
58.511668 742.000000
58.531151 693.000000
58.550633 696.000000
58.570116 694.000000
58.589598 753.000000
58.609080 720.000000
58.628563 727.000000
58.648045 779.000000
58.667527 756.000000
58.687010 723.000000
58.706492 719.000000
58.725975 739.000000
58.745457 695.000000
58.764939 747.000000
58.784422 746.000000
58.803904 758.000000
58.823386 727.000000
58.842869 771.000000
58.862351 729.000000
58.881834 770.000000
58.901316 759.000000
58.920798 738.000000
58.940281 736.000000
58.959763 840.000000
58.979245 914.000000
58.998728 996.000000
59.018210 1052.000000
59.037692 912.000000
59.057175 824.000000
59.076657 771.000000
59.096140 812.000000
59.115622 789.000000
59.135104 768.000000
59.154587 852.000000
59.174069 824.000000
59.193551 854.000000
59.213034 815.000000
59.232516 776.000000
59.251999 775.000000
59.271481 735.000000
59.290963 731.000000
59.310446 725.000000
59.329928 714.000000
59.349410 736.000000
59.368893 756.000000
59.388375 734.000000
59.407857 759.000000
59.427340 782.000000
59.446822 717.000000
59.466305 727.000000
59.485787 779.000000
59.505269 691.000000
59.524752 745.000000
59.544234 708.000000
59.563716 730.000000
59.583199 739.000000
59.602681 724.000000
59.622164 703.000000
59.641646 686.000000
59.661128 720.000000
59.680611 727.000000
59.700093 725.000000
59.719575 696.000000
59.739058 743.000000
59.758540 718.000000
59.778022 742.000000
59.797505 707.000000
59.816987 719.000000
59.836470 736.000000
59.855952 732.000000
59.875434 735.000000
59.894917 700.000000
59.914399 710.000000
59.933881 711.000000
59.953364 721.000000
59.972846 730.000000
59.992329 713.000000
60.011811 750.000000
60.031293 727.000000
60.050776 746.000000
60.070258 733.000000
60.089740 687.000000
60.109223 693.000000
60.128705 676.000000
60.148187 738.000000
60.167670 691.000000
60.187152 679.000000
60.206635 664.000000
60.226117 720.000000
60.245599 754.000000
60.265082 774.000000
60.284564 716.000000
60.304046 689.000000
60.323529 746.000000
60.343011 713.000000
60.362494 730.000000
60.381976 754.000000
60.401458 702.000000
60.420941 734.000000
60.440423 735.000000
60.459905 688.000000
60.479388 701.000000
60.498870 707.000000
60.518352 756.000000
60.537835 706.000000
60.557317 768.000000
60.576800 711.000000
60.596282 657.000000
60.615764 747.000000
60.635247 730.000000
60.654729 759.000000
60.674211 719.000000
60.693694 721.000000
60.713176 745.000000
60.732659 688.000000
60.752141 699.000000
60.771623 740.000000
60.791106 717.000000
60.810588 704.000000
60.830070 692.000000
60.849553 731.000000
60.869035 724.000000
60.888518 727.000000
60.908000 720.000000
60.927482 706.000000
60.946965 719.000000
60.966447 751.000000
60.985929 750.000000
61.005412 683.000000
61.024894 741.000000
61.044376 751.000000
61.063859 784.000000
61.083341 718.000000
61.102824 717.000000
61.122306 726.000000
61.141788 714.000000
61.161271 754.000000
61.180753 724.000000
61.200235 727.000000
61.219718 746.000000
61.239200 742.000000
61.258683 737.000000
61.278165 742.000000
61.297647 707.000000
61.317130 763.000000
61.336612 767.000000
61.356094 748.000000
61.375577 713.000000
61.395059 756.000000
61.414541 753.000000
61.434024 716.000000
61.453506 728.000000
61.472989 739.000000
61.492471 747.000000
61.511953 696.000000
61.531436 764.000000
61.550918 692.000000
61.570400 761.000000
61.589883 835.000000
61.609365 799.000000
61.628848 841.000000
61.648330 1019.000000
61.667812 1226.000000
61.687295 1454.000000
61.706777 1416.000000
61.726259 1218.000000
61.745742 939.000000
61.765224 839.000000
61.784706 795.000000
61.804189 916.000000
61.823671 966.000000
61.843154 1012.000000
61.862636 1081.000000
61.882118 1066.000000
61.901601 950.000000
61.921083 878.000000
61.940565 812.000000
61.960048 746.000000
61.979530 695.000000
61.999013 728.000000
62.018495 760.000000
62.037977 759.000000
62.057460 702.000000
62.076942 690.000000
62.096424 704.000000
62.115907 729.000000
62.135389 732.000000
62.154871 767.000000
62.174354 769.000000
62.193836 746.000000
62.213319 752.000000
62.232801 750.000000
62.252283 756.000000
62.271766 718.000000
62.291248 772.000000
62.310730 790.000000
62.330213 713.000000
62.349695 696.000000
62.369178 749.000000
62.388660 730.000000
62.408142 721.000000
62.427625 763.000000
62.447107 723.000000
62.466589 755.000000
62.486072 768.000000
62.505554 766.000000
62.525037 734.000000
62.544519 753.000000
62.564001 727.000000
62.583484 677.000000
62.602966 745.000000
62.622448 720.000000
62.641931 690.000000
62.661413 725.000000
62.680895 699.000000
62.700378 747.000000
62.719860 759.000000
62.739343 758.000000
62.758825 689.000000
62.778307 740.000000
62.797790 719.000000
62.817272 741.000000
62.836754 742.000000
62.856237 709.000000
62.875719 743.000000
62.895202 730.000000
62.914684 775.000000
62.934166 727.000000
62.953649 725.000000
62.973131 742.000000
62.992613 734.000000
63.012096 707.000000
63.031578 750.000000
63.051060 696.000000
63.070543 742.000000
63.090025 742.000000
63.109508 743.000000
63.128990 699.000000
63.148472 702.000000
63.167955 662.000000
63.187437 717.000000
63.206919 723.000000
63.226402 740.000000
63.245884 727.000000
63.265367 747.000000
63.284849 742.000000
63.304331 708.000000
63.323814 721.000000
63.343296 751.000000
63.362778 733.000000
63.382261 687.000000
63.401743 762.000000
63.421225 772.000000
63.440708 720.000000
63.460190 728.000000
63.479673 732.000000
63.499155 707.000000
63.518637 739.000000
63.538120 763.000000
63.557602 766.000000
63.577084 742.000000
63.596567 735.000000
63.616049 783.000000
63.635532 801.000000
63.655014 729.000000
63.674496 737.000000
63.693979 690.000000
63.713461 737.000000
63.732943 777.000000
63.752426 733.000000
63.771908 739.000000
63.791390 763.000000
63.810873 767.000000
63.830355 702.000000
63.849838 711.000000
63.869320 737.000000
63.888802 752.000000
63.908285 744.000000
63.927767 708.000000
63.947249 749.000000
63.966732 695.000000
63.986214 719.000000
64.005697 699.000000
64.025179 770.000000
64.044661 749.000000
64.064144 739.000000
64.083626 730.000000
64.103108 739.000000
64.122591 745.000000
64.142073 784.000000
64.161556 751.000000
64.181038 813.000000
64.200520 856.000000
64.220003 841.000000
64.239485 973.000000
64.258967 1156.000000
64.278450 1400.000000
64.297932 1475.000000
64.317414 1158.000000
64.336897 955.000000
64.356379 861.000000
64.375862 791.000000
64.395344 871.000000
64.414826 926.000000
64.434309 867.000000
64.453791 1032.000000
64.473273 1067.000000
64.492756 993.000000
64.512238 903.000000
64.531721 780.000000
64.551203 788.000000
64.570685 763.000000
64.590168 764.000000
64.609650 768.000000
64.629132 778.000000
64.648615 756.000000
64.668097 746.000000
64.687579 747.000000
64.707062 762.000000
64.726544 781.000000
64.746027 737.000000
64.765509 771.000000
64.784991 720.000000
64.804474 759.000000
64.823956 760.000000
64.843438 693.000000
64.862921 719.000000
64.882403 738.000000
64.901886 725.000000
64.921368 729.000000
64.940850 677.000000
64.960333 753.000000
64.979815 732.000000
64.999297 756.000000
65.018780 739.000000
65.038262 763.000000
65.057744 706.000000
65.077227 709.000000
65.096709 754.000000
65.116192 788.000000
65.135674 719.000000
65.155156 745.000000
65.174639 746.000000
65.194121 742.000000
65.213603 764.000000
65.233086 772.000000
65.252568 747.000000
65.272051 780.000000
65.291533 761.000000
65.311015 721.000000
65.330498 753.000000
65.349980 686.000000
65.369462 747.000000
65.388945 728.000000
65.408427 770.000000
65.427909 728.000000
65.447392 733.000000
65.466874 749.000000
65.486357 705.000000
65.505839 710.000000
65.525321 698.000000
65.544804 745.000000
65.564286 747.000000
65.583768 760.000000
65.603251 747.000000
65.622733 732.000000
65.642216 696.000000
65.661698 700.000000
65.681180 715.000000
65.700663 747.000000
65.720145 737.000000
65.739627 797.000000
65.759110 733.000000
65.778592 795.000000
65.798075 755.000000
65.817557 719.000000
65.837039 752.000000
65.856522 715.000000
65.876004 711.000000
65.895486 763.000000
65.914969 708.000000
65.934451 802.000000
65.953933 703.000000
65.973416 779.000000
65.992898 783.000000
66.012381 761.000000
66.031863 774.000000
66.051345 760.000000
66.070828 700.000000
66.090310 737.000000
66.109792 765.000000
66.129275 736.000000
66.148757 740.000000
66.168240 713.000000
66.187722 735.000000
66.207204 783.000000
66.226687 711.000000
66.246169 763.000000
66.265651 746.000000
66.285134 735.000000
66.304616 740.000000
66.324098 754.000000
66.343581 739.000000
66.363063 755.000000
66.382546 794.000000
66.402028 766.000000
66.421510 786.000000
66.440993 763.000000
66.460475 737.000000
66.479957 677.000000
66.499440 726.000000
66.518922 712.000000
66.538405 728.000000
66.557887 740.000000
66.577369 752.000000
66.596852 689.000000
66.616334 771.000000
66.635816 785.000000
66.655299 800.000000
66.674781 721.000000
66.694263 739.000000
66.713746 754.000000
66.733228 714.000000
66.752711 770.000000
66.772193 751.000000
66.791675 733.000000
66.811158 738.000000
66.830640 807.000000
66.850122 790.000000
66.869605 760.000000
66.889087 767.000000
66.908570 810.000000
66.928052 733.000000
66.947534 725.000000
66.967017 781.000000
66.986499 730.000000
67.005981 740.000000
67.025464 705.000000
67.044946 759.000000
67.064428 721.000000
67.083911 734.000000
67.103393 746.000000
67.122876 733.000000
67.142358 777.000000
67.161840 743.000000
67.181323 724.000000
67.200805 735.000000
67.220287 713.000000
67.239770 735.000000
67.259252 751.000000
67.278735 736.000000
67.298217 747.000000
67.317699 716.000000
67.337182 737.000000
67.356664 705.000000
67.376146 762.000000
67.395629 744.000000
67.415111 708.000000
67.434593 753.000000
67.454076 722.000000
67.473558 764.000000
67.493041 741.000000
67.512523 748.000000
67.532005 702.000000
67.551488 718.000000
67.570970 711.000000
67.590452 729.000000
67.609935 740.000000
67.629417 805.000000
67.648900 718.000000
67.668382 716.000000
67.687864 782.000000
67.707347 724.000000
67.726829 762.000000
67.746311 765.000000
67.765794 709.000000
67.785276 684.000000
67.804759 721.000000
67.824241 715.000000
67.843723 751.000000
67.863206 728.000000
67.882688 798.000000
67.902170 737.000000
67.921653 726.000000
67.941135 736.000000
67.960617 745.000000
67.980100 796.000000
67.999582 773.000000
68.019065 712.000000
68.038547 712.000000
68.058029 763.000000
68.077512 772.000000
68.096994 760.000000
68.116476 782.000000
68.135959 739.000000
68.155441 717.000000
68.174924 753.000000
68.194406 741.000000
68.213888 749.000000
68.233371 727.000000
68.252853 732.000000
68.272335 754.000000
68.291818 736.000000
68.311300 765.000000
68.330782 791.000000
68.350265 738.000000
68.369747 744.000000
68.389230 757.000000
68.408712 774.000000
68.428194 738.000000
68.447677 741.000000
68.467159 801.000000
68.486641 744.000000
68.506124 758.000000
68.525606 754.000000
68.545089 740.000000
68.564571 760.000000
68.584053 723.000000
68.603536 736.000000
68.623018 771.000000
68.642500 731.000000
68.661983 765.000000
68.681465 755.000000
68.700947 756.000000
68.720430 755.000000
68.739912 748.000000
68.759395 785.000000
68.778877 756.000000
68.798359 784.000000
68.817842 712.000000
68.837324 746.000000
68.856806 762.000000
68.876289 700.000000
68.895771 732.000000
68.915254 737.000000
68.934736 726.000000
68.954218 767.000000
68.973701 734.000000
68.993183 773.000000
69.012665 751.000000
69.032148 702.000000
69.051630 727.000000
69.071112 725.000000
69.090595 781.000000
69.110077 719.000000
69.129560 709.000000
69.149042 804.000000
69.168524 792.000000
69.188007 728.000000
69.207489 720.000000
69.226971 776.000000
69.246454 735.000000
69.265936 722.000000
69.285419 745.000000
69.304901 738.000000
69.324383 802.000000
69.343866 797.000000
69.363348 784.000000
69.382830 735.000000
69.402313 750.000000
69.421795 777.000000
69.441278 783.000000
69.460760 729.000000
69.480242 753.000000
69.499725 740.000000
69.519207 723.000000
69.538689 755.000000
69.558172 776.000000
69.577654 756.000000
69.597136 743.000000
69.616619 733.000000
69.636101 736.000000
69.655584 747.000000
69.675066 774.000000
69.694548 763.000000
69.714031 785.000000
69.733513 768.000000
69.752995 785.000000
69.772478 736.000000
69.791960 757.000000
69.811443 737.000000
69.830925 754.000000
69.850407 734.000000
69.869890 737.000000
69.889372 706.000000
69.908854 780.000000
69.928337 727.000000
69.947819 806.000000
69.967301 723.000000
69.986784 682.000000
70.006266 739.000000
70.025749 760.000000
