4.000000 611.000000
4.019482 581.000000
4.038965 610.000000
4.058447 610.000000
4.077929 607.000000
4.097412 590.000000
4.116894 549.000000
4.136377 575.000000
4.155859 596.000000
4.175341 560.000000
4.194824 531.000000
4.214306 509.000000
4.233788 510.000000
4.253271 517.000000
4.272753 520.000000
4.292236 528.000000
4.311718 524.000000
4.331200 543.000000
4.350683 504.000000
4.370165 497.000000
4.389647 504.000000
4.409130 498.000000
4.428612 485.000000
4.448094 503.000000
4.467577 450.000000
4.487059 539.000000
4.506542 501.000000
4.526024 473.000000
4.545506 482.000000
4.564989 493.000000
4.584471 461.000000
4.603953 468.000000
4.623436 462.000000
4.642918 469.000000
4.662401 473.000000
4.681883 475.000000
4.701365 431.000000
4.720848 437.000000
4.740330 429.000000
4.759812 453.000000
4.779295 466.000000
4.798777 434.000000
4.818259 453.000000
4.837742 399.000000
4.857224 389.000000
4.876707 398.000000
4.896189 449.000000
4.915671 433.000000
4.935154 435.000000
4.954636 422.000000
4.974118 439.000000
4.993601 434.000000
5.013083 384.000000
5.032566 389.000000
5.052048 412.000000
5.071530 409.000000
5.091013 414.000000
5.110495 383.000000
5.129977 414.000000
5.149460 417.000000
5.168942 402.000000
5.188425 406.000000
5.207907 382.000000
5.227389 421.000000
5.246872 407.000000
5.266354 392.000000
5.285836 409.000000
5.305319 415.000000
5.324801 428.000000
5.344283 384.000000
5.363766 421.000000
5.383248 373.000000
5.402731 345.000000
5.422213 383.000000
5.441695 400.000000
5.461178 371.000000
5.480660 369.000000
5.500142 408.000000
5.519625 363.000000
5.539107 365.000000
5.558590 376.000000
5.578072 373.000000
5.597554 372.000000
5.617037 383.000000
5.636519 363.000000
5.656001 390.000000
5.675484 356.000000
5.694966 391.000000
5.714448 378.000000
5.733931 373.000000
5.753413 368.000000
5.772896 377.000000
5.792378 364.000000
5.811860 367.000000
5.831343 371.000000
5.850825 359.000000
5.870307 375.000000
5.889790 378.000000
5.909272 335.000000
5.928755 394.000000
5.948237 371.000000
5.967719 355.000000
5.987202 360.000000
6.006684 354.000000
6.026166 362.000000
6.045649 343.000000
6.065131 350.000000
6.084613 335.000000
6.104096 339.000000
6.123578 338.000000
6.143061 371.000000
6.162543 333.000000
6.182025 372.000000
6.201508 349.000000
6.220990 322.000000
6.240472 296.000000
6.259955 368.000000
6.279437 355.000000
6.298920 347.000000
6.318402 328.000000
6.337884 381.000000
6.357367 365.000000
6.376849 329.000000
6.396331 348.000000
6.415814 344.000000
6.435296 343.000000
6.454778 333.000000
6.474261 329.000000
6.493743 353.000000
6.513226 342.000000
6.532708 346.000000
6.552190 349.000000
6.571673 315.000000
6.591155 359.000000
6.610637 329.000000
6.630120 352.000000
6.649602 367.000000
6.669085 359.000000
6.688567 339.000000
6.708049 309.000000
6.727532 337.000000
6.747014 298.000000
6.766496 322.000000
6.785979 329.000000
6.805461 319.000000
6.824944 336.000000
6.844426 330.000000
6.863908 337.000000
6.883391 341.000000
6.902873 357.000000
6.922355 295.000000
6.941838 325.000000
6.961320 336.000000
6.980802 312.000000
7.000285 307.000000
7.019767 329.000000
7.039250 328.000000
7.058732 333.000000
7.078214 297.000000
7.097697 329.000000
7.117179 333.000000
7.136661 345.000000
7.156144 330.000000
7.175626 320.000000
7.195109 340.000000
7.214591 319.000000
7.234073 329.000000
7.253556 301.000000
7.273038 321.000000
7.292520 325.000000
7.312003 305.000000
7.331485 336.000000
7.350967 334.000000
7.370450 283.000000
7.389932 307.000000
7.409415 323.000000
7.428897 332.000000
7.448379 320.000000
7.467862 331.000000
7.487344 332.000000
7.506826 307.000000
7.526309 307.000000
7.545791 329.000000
7.565274 305.000000
7.584756 354.000000
7.604238 334.000000
7.623721 326.000000
7.643203 305.000000
7.662685 344.000000
7.682168 331.000000
7.701650 311.000000
7.721132 348.000000
7.740615 311.000000
7.760097 329.000000
7.779580 326.000000
7.799062 312.000000
7.818544 287.000000
7.838027 331.000000
7.857509 323.000000
7.876991 311.000000
7.896474 309.000000
7.915956 323.000000
7.935439 329.000000
7.954921 317.000000
7.974403 296.000000
7.993886 346.000000
8.013368 305.000000
8.032850 306.000000
8.052333 330.000000
8.071815 335.000000
8.091297 315.000000
8.110780 306.000000
8.130262 298.000000
8.149745 326.000000
8.169227 320.000000
8.188709 280.000000
8.208192 318.000000
8.227674 298.000000
8.247156 306.000000
8.266639 281.000000
8.286121 314.000000
8.305604 326.000000
8.325086 303.000000
8.344568 323.000000
8.364051 283.000000
8.383533 320.000000
8.403015 332.000000
8.422498 293.000000
8.441980 295.000000
8.461463 303.000000
8.480945 302.000000
8.500427 358.000000
8.519910 297.000000
8.539392 320.000000
8.558874 317.000000
8.578357 310.000000
8.597839 336.000000
8.617321 274.000000
8.636804 301.000000
8.656286 320.000000
8.675769 342.000000
8.695251 272.000000
8.714733 311.000000
8.734216 311.000000
8.753698 291.000000
8.773180 332.000000
8.792663 309.000000
8.812145 311.000000
8.831628 318.000000
8.851110 282.000000
8.870592 320.000000
8.890075 295.000000
8.909557 292.000000
8.929039 317.000000
8.948522 307.000000
8.968004 297.000000
8.987486 326.000000
9.006969 322.000000
9.026451 351.000000
9.045934 316.000000
9.065416 304.000000
9.084898 327.000000
9.104381 274.000000
9.123863 311.000000
9.143345 327.000000
9.162828 299.000000
9.182310 327.000000
9.201793 305.000000
9.221275 289.000000
9.240757 293.000000
9.260240 317.000000
9.279722 297.000000
9.299204 309.000000
9.318687 287.000000
9.338169 295.000000
9.357651 304.000000
9.377134 318.000000
9.396616 344.000000
9.416099 317.000000
9.435581 312.000000
9.455063 339.000000
9.474546 307.000000
9.494028 338.000000
9.513510 349.000000
9.532993 313.000000
9.552475 321.000000
9.571958 295.000000
9.591440 323.000000
9.610922 300.000000
9.630405 304.000000
9.649887 324.000000
9.669369 308.000000
9.688852 328.000000
9.708334 301.000000
9.727816 287.000000
9.747299 311.000000
9.766781 311.000000
9.786264 310.000000
9.805746 300.000000
9.825228 289.000000
9.844711 306.000000
9.864193 338.000000
9.883675 320.000000
9.903158 287.000000
9.922640 321.000000
9.942123 313.000000
9.961605 275.000000
9.981087 262.000000
10.000570 324.000000
10.020052 328.000000
10.039534 324.000000
10.059017 325.000000
10.078499 297.000000
10.097982 334.000000
10.117464 340.000000
10.136946 321.000000
10.156429 322.000000
10.175911 325.000000
10.195393 298.000000
10.214876 288.000000
10.234358 326.000000
10.253840 319.000000
10.273323 325.000000
10.292805 318.000000
10.312288 281.000000
10.331770 300.000000
10.351252 316.000000
10.370735 325.000000
10.390217 331.000000
10.409699 272.000000
10.429182 287.000000
10.448664 314.000000
10.468147 293.000000
10.487629 302.000000
10.507111 303.000000
10.526594 290.000000
10.546076 345.000000
10.565558 322.000000
10.585041 286.000000
10.604523 256.000000
10.624005 331.000000
10.643488 320.000000
10.662970 339.000000
10.682453 306.000000
10.701935 323.000000
10.721417 292.000000
10.740900 287.000000
10.760382 321.000000
10.779864 281.000000
10.799347 342.000000
10.818829 306.000000
10.838312 311.000000
10.857794 298.000000
10.877276 313.000000
10.896759 315.000000
10.916241 302.000000
10.935723 285.000000
10.955206 330.000000
10.974688 330.000000
10.994170 304.000000
11.013653 274.000000
11.033135 329.000000
11.052618 297.000000
11.072100 315.000000
11.091582 272.000000
11.111065 298.000000
11.130547 349.000000
11.150029 326.000000
11.169512 297.000000
11.188994 311.000000
11.208477 316.000000
11.227959 299.000000
11.247441 316.000000
11.266924 320.000000
11.286406 305.000000
11.305888 317.000000
11.325371 322.000000
11.344853 312.000000
11.364335 311.000000
11.383818 316.000000
11.403300 282.000000
11.422783 329.000000
11.442265 272.000000
11.461747 334.000000
11.481230 314.000000
11.500712 289.000000
11.520194 310.000000
11.539677 283.000000
11.559159 307.000000
11.578642 329.000000
11.598124 336.000000
11.617606 334.000000
11.637089 305.000000
11.656571 312.000000
11.676053 315.000000
11.695536 306.000000
11.715018 325.000000
11.734500 326.000000
11.753983 297.000000
11.773465 288.000000
11.792948 303.000000
11.812430 289.000000
11.831912 318.000000
11.851395 302.000000
11.870877 289.000000
11.890359 311.000000
11.909842 312.000000
11.929324 297.000000
11.948807 310.000000
11.968289 297.000000
11.987771 280.000000
12.007254 333.000000
12.026736 318.000000
12.046218 297.000000
12.065701 313.000000
12.085183 270.000000
12.104666 309.000000
12.124148 307.000000
12.143630 292.000000
12.163113 268.000000
12.182595 317.000000
12.202077 281.000000
12.221560 321.000000
12.241042 267.000000
12.260524 294.000000
12.280007 301.000000
12.299489 348.000000
12.318972 331.000000
12.338454 304.000000
12.357936 309.000000
12.377419 295.000000
12.396901 294.000000
12.416383 304.000000
12.435866 304.000000
12.455348 307.000000
12.474831 325.000000
12.494313 296.000000
12.513795 293.000000
12.533278 278.000000
12.552760 303.000000
12.572242 299.000000
12.591725 314.000000
12.611207 321.000000
12.630689 300.000000
12.650172 314.000000
12.669654 305.000000
12.689137 294.000000
12.708619 300.000000
12.728101 307.000000
12.747584 314.000000
12.767066 303.000000
12.786548 293.000000
12.806031 317.000000
12.825513 316.000000
12.844996 273.000000
12.864478 289.000000
12.883960 285.000000
12.903443 286.000000
12.922925 325.000000
12.942407 290.000000
12.961890 292.000000
12.981372 293.000000
13.000854 306.000000
13.020337 347.000000
13.039819 295.000000
13.059302 303.000000
13.078784 326.000000
13.098266 305.000000
13.117749 314.000000
13.137231 300.000000
13.156713 283.000000
13.176196 309.000000
13.195678 290.000000
13.215161 305.000000
13.234643 294.000000
13.254125 297.000000
13.273608 307.000000
13.293090 293.000000
13.312572 311.000000
13.332055 315.000000
13.351537 274.000000
13.371019 285.000000
13.390502 305.000000
13.409984 284.000000
13.429467 315.000000
13.448949 284.000000
13.468431 284.000000
13.487914 320.000000
13.507396 285.000000
13.526878 305.000000
13.546361 321.000000
13.565843 288.000000
13.585326 314.000000
13.604808 280.000000
13.624290 306.000000
13.643773 290.000000
13.663255 317.000000
13.682737 267.000000
13.702220 332.000000
13.721702 320.000000
13.741185 296.000000
13.760667 300.000000
13.780149 352.000000
13.799632 299.000000
13.819114 344.000000
13.838596 326.000000
13.858079 306.000000
13.877561 312.000000
13.897043 289.000000
13.916526 304.000000
13.936008 309.000000
13.955491 331.000000
13.974973 299.000000
13.994455 319.000000
14.013938 279.000000
14.033420 280.000000
14.052902 311.000000
14.072385 291.000000
14.091867 303.000000
14.111350 306.000000
14.130832 273.000000
14.150314 286.000000
14.169797 302.000000
14.189279 291.000000
14.208761 313.000000
14.228244 336.000000
14.247726 302.000000
14.267208 278.000000
14.286691 309.000000
14.306173 303.000000
14.325656 297.000000
14.345138 316.000000
14.364620 290.000000
14.384103 301.000000
14.403585 312.000000
14.423067 325.000000
14.442550 292.000000
14.462032 289.000000
14.481515 289.000000
14.500997 315.000000
14.520479 308.000000
14.539962 314.000000
14.559444 307.000000
14.578926 298.000000
14.598409 306.000000
14.617891 305.000000
14.637373 297.000000
14.656856 331.000000
14.676338 289.000000
14.695821 324.000000
14.715303 297.000000
14.734785 300.000000
14.754268 310.000000
14.773750 306.000000
14.793232 321.000000
14.812715 307.000000
14.832197 303.000000
14.851680 302.000000
14.871162 301.000000
14.890644 333.000000
14.910127 325.000000
14.929609 305.000000
14.949091 308.000000
14.968574 315.000000
14.988056 318.000000
15.007538 339.000000
15.027021 303.000000
15.046503 332.000000
15.065986 292.000000
15.085468 291.000000
15.104950 304.000000
15.124433 323.000000
15.143915 314.000000
15.163397 289.000000
15.182880 347.000000
15.202362 327.000000
15.221845 304.000000
15.241327 290.000000
15.260809 302.000000
15.280292 306.000000
15.299774 286.000000
15.319256 311.000000
15.338739 290.000000
15.358221 272.000000
15.377704 302.000000
15.397186 295.000000
15.416668 308.000000
15.436151 281.000000
15.455633 319.000000
15.475115 294.000000
15.494598 293.000000
15.514080 306.000000
15.533562 308.000000
15.553045 288.000000
15.572527 304.000000
15.592010 330.000000
15.611492 306.000000
15.630974 327.000000
15.650457 309.000000
15.669939 284.000000
15.689421 305.000000
15.708904 321.000000
15.728386 321.000000
15.747869 313.000000
15.767351 289.000000
15.786833 288.000000
15.806316 284.000000
15.825798 315.000000
15.845280 295.000000
15.864763 324.000000
15.884245 304.000000
15.903727 306.000000
15.923210 294.000000
15.942692 309.000000
15.962175 276.000000
15.981657 313.000000
16.001139 289.000000
16.020622 269.000000
16.040104 314.000000
16.059586 312.000000
16.079069 293.000000
16.098551 311.000000
16.118034 319.000000
16.137516 316.000000
16.156998 296.000000
16.176481 291.000000
16.195963 285.000000
16.215445 328.000000
16.234928 272.000000
16.254410 325.000000
16.273892 336.000000
16.293375 311.000000
16.312857 280.000000
16.332340 317.000000
16.351822 307.000000
16.371304 333.000000
16.390787 294.000000
16.410269 321.000000
16.429751 298.000000
16.449234 294.000000
16.468716 287.000000
16.488199 307.000000
16.507681 317.000000
16.527163 335.000000
16.546646 354.000000
16.566128 313.000000
16.585610 302.000000
16.605093 299.000000
16.624575 303.000000
16.644057 314.000000
16.663540 293.000000
16.683022 306.000000
16.702505 300.000000
16.721987 295.000000
16.741469 300.000000
16.760952 318.000000
16.780434 274.000000
16.799916 341.000000
16.819399 286.000000
16.838881 298.000000
16.858364 281.000000
16.877846 273.000000
16.897328 272.000000
16.916811 324.000000
16.936293 283.000000
16.955775 297.000000
16.975258 324.000000
16.994740 312.000000
17.014222 298.000000
17.033705 276.000000
17.053187 307.000000
17.072670 297.000000
17.092152 304.000000
17.111634 299.000000
17.131117 310.000000
17.150599 301.000000
17.170081 276.000000
17.189564 289.000000
17.209046 257.000000
17.228529 319.000000
17.248011 302.000000
17.267493 270.000000
17.286976 286.000000
17.306458 287.000000
17.325940 307.000000
17.345423 294.000000
17.364905 292.000000
17.384388 312.000000
17.403870 292.000000
17.423352 311.000000
17.442835 303.000000
17.462317 254.000000
17.481799 308.000000
17.501282 311.000000
17.520764 305.000000
17.540246 326.000000
17.559729 303.000000
17.579211 319.000000
17.598694 296.000000
17.618176 322.000000
17.637658 325.000000
17.657141 322.000000
17.676623 316.000000
17.696105 294.000000
17.715588 305.000000
17.735070 314.000000
17.754553 300.000000
17.774035 291.000000
17.793517 296.000000
17.813000 333.000000
17.832482 315.000000
17.851964 302.000000
17.871447 289.000000
17.890929 332.000000
17.910411 296.000000
17.929894 311.000000
17.949376 305.000000
17.968859 287.000000
17.988341 297.000000
18.007823 298.000000
18.027306 317.000000
18.046788 291.000000
18.066270 275.000000
18.085753 284.000000
18.105235 273.000000
18.124718 311.000000
18.144200 293.000000
18.163682 329.000000
18.183165 313.000000
18.202647 269.000000
18.222129 293.000000
18.241612 300.000000
18.261094 302.000000
18.280576 289.000000
18.300059 295.000000
18.319541 305.000000
18.339024 301.000000
18.358506 288.000000
18.377988 316.000000
18.397471 291.000000
18.416953 296.000000
18.436435 325.000000
18.455918 287.000000
18.475400 301.000000
18.494883 311.000000
18.514365 302.000000
18.533847 312.000000
18.553330 286.000000
18.572812 279.000000
18.592294 327.000000
18.611777 316.000000
18.631259 299.000000
18.650741 303.000000
18.670224 302.000000
18.689706 301.000000
18.709189 290.000000
18.728671 296.000000
18.748153 280.000000
18.767636 292.000000
18.787118 297.000000
18.806600 296.000000
18.826083 311.000000
18.845565 256.000000
18.865048 317.000000
18.884530 272.000000
18.904012 304.000000
18.923495 306.000000
18.942977 276.000000
18.962459 290.000000
18.981942 296.000000
19.001424 290.000000
19.020907 288.000000
19.040389 290.000000
19.059871 309.000000
19.079354 271.000000
19.098836 289.000000
19.118318 328.000000
19.137801 309.000000
19.157283 288.000000
19.176765 311.000000
19.196248 275.000000
19.215730 303.000000
19.235213 282.000000
19.254695 296.000000
19.274177 323.000000
19.293660 309.000000
19.313142 307.000000
19.332624 293.000000
19.352107 269.000000
19.371589 284.000000
19.391072 311.000000
19.410554 292.000000
19.430036 289.000000
19.449519 310.000000
19.469001 306.000000
19.488483 310.000000
19.507966 294.000000
19.527448 291.000000
19.546930 318.000000
19.566413 306.000000
19.585895 287.000000
19.605378 298.000000
19.624860 329.000000
19.644342 335.000000
19.663825 311.000000
19.683307 312.000000
19.702789 318.000000
19.722272 328.000000
19.741754 295.000000
19.761237 269.000000
19.780719 299.000000
19.800201 288.000000
19.819684 301.000000
19.839166 290.000000
19.858648 287.000000
19.878131 299.000000
19.897613 299.000000
19.917095 289.000000
19.936578 336.000000
19.956060 319.000000
19.975543 292.000000
19.995025 293.000000
20.014507 306.000000
20.033990 296.000000
20.053472 314.000000
20.072954 274.000000
20.092437 339.000000
20.111919 311.000000
20.131402 299.000000
20.150884 302.000000
20.170366 287.000000
20.189849 296.000000
20.209331 291.000000
20.228813 294.000000
20.248296 304.000000
20.267778 298.000000
20.287260 311.000000
20.306743 322.000000
20.326225 288.000000
20.345708 267.000000
20.365190 312.000000
20.384672 298.000000
20.404155 312.000000
20.423637 279.000000
20.443119 316.000000
20.462602 300.000000
20.482084 292.000000
20.501567 290.000000
20.521049 279.000000
20.540531 316.000000
20.560014 310.000000
20.579496 269.000000
20.598978 307.000000
20.618461 301.000000
20.637943 314.000000
20.657426 304.000000
20.676908 287.000000
20.696390 334.000000
20.715873 305.000000
20.735355 276.000000
20.754837 303.000000
20.774320 318.000000
20.793802 313.000000
20.813284 314.000000
20.832767 305.000000
20.852249 295.000000
20.871732 317.000000
20.891214 310.000000
20.910696 289.000000
20.930179 317.000000
20.949661 308.000000
20.969143 280.000000
20.988626 282.000000
21.008108 274.000000
21.027591 331.000000
21.047073 292.000000
21.066555 274.000000
21.086038 278.000000
21.105520 313.000000
21.125002 299.000000
21.144485 322.000000
21.163967 297.000000
21.183449 293.000000
21.202932 320.000000
21.222414 312.000000
21.241897 273.000000
21.261379 296.000000
21.280861 287.000000
21.300344 289.000000
21.319826 327.000000
21.339308 315.000000
21.358791 285.000000
21.378273 318.000000
21.397756 268.000000
21.417238 302.000000
21.436720 315.000000
21.456203 308.000000
21.475685 274.000000
21.495167 272.000000
21.514650 288.000000
21.534132 264.000000
21.553614 332.000000
21.573097 307.000000
21.592579 297.000000
21.612062 309.000000
21.631544 306.000000
21.651026 324.000000
21.670509 301.000000
21.689991 302.000000
21.709473 272.000000
21.728956 279.000000
21.748438 297.000000
21.767921 292.000000
21.787403 297.000000
21.806885 281.000000
21.826368 279.000000
21.845850 319.000000
21.865332 247.000000
21.884815 336.000000
21.904297 305.000000
21.923779 308.000000
21.943262 316.000000
21.962744 280.000000
21.982227 285.000000
22.001709 305.000000
22.021191 301.000000
22.040674 315.000000
22.060156 285.000000
22.079638 295.000000
22.099121 313.000000
22.118603 324.000000
22.138086 314.000000
22.157568 329.000000
22.177050 284.000000
22.196533 289.000000
22.216015 274.000000
22.235497 307.000000
22.254980 295.000000
22.274462 313.000000
22.293945 287.000000
22.313427 321.000000
22.332909 332.000000
22.352392 290.000000
22.371874 333.000000
22.391356 297.000000
22.410839 301.000000
22.430321 285.000000
22.449803 293.000000
22.469286 311.000000
22.488768 294.000000
22.508251 284.000000
22.527733 277.000000
22.547215 293.000000
22.566698 279.000000
22.586180 343.000000
22.605662 307.000000
22.625145 291.000000
22.644627 257.000000
22.664110 286.000000
22.683592 304.000000
22.703074 302.000000
22.722557 293.000000
22.742039 295.000000
22.761521 309.000000
22.781004 300.000000
22.800486 284.000000
22.819968 317.000000
22.839451 312.000000
22.858933 289.000000
22.878416 312.000000
22.897898 298.000000
22.917380 305.000000
22.936863 312.000000
22.956345 296.000000
22.975827 320.000000
22.995310 255.000000
23.014792 287.000000
23.034275 311.000000
23.053757 336.000000
23.073239 325.000000
23.092722 300.000000
23.112204 304.000000
23.131686 325.000000
23.151169 293.000000
23.170651 287.000000
23.190133 327.000000
23.209616 313.000000
23.229098 308.000000
23.248581 292.000000
23.268063 344.000000
23.287545 325.000000
23.307028 299.000000
23.326510 315.000000
23.345992 278.000000
23.365475 330.000000
23.384957 295.000000
23.404440 303.000000
23.423922 302.000000
23.443404 312.000000
23.462887 305.000000
23.482369 299.000000
23.501851 300.000000
23.521334 361.000000
23.540816 359.000000
23.560298 383.000000
23.579781 313.000000
23.599263 358.000000
23.618746 283.000000
23.638228 307.000000
23.657710 343.000000
23.677193 297.000000
23.696675 288.000000
23.716157 326.000000
23.735640 295.000000
23.755122 311.000000
23.774605 285.000000
23.794087 318.000000
23.813569 291.000000
23.833052 280.000000
23.852534 264.000000
23.872016 296.000000
23.891499 316.000000
23.910981 291.000000
23.930463 312.000000
23.949946 326.000000
23.969428 317.000000
23.988911 284.000000
24.008393 308.000000
24.027875 301.000000
24.047358 295.000000
24.066840 294.000000
24.086322 319.000000
24.105805 314.000000
24.125287 302.000000
24.144770 304.000000
24.164252 295.000000
24.183734 305.000000
24.203217 296.000000
24.222699 269.000000
24.242181 333.000000
24.261664 329.000000
24.281146 294.000000
24.300629 311.000000
24.320111 319.000000
24.339593 304.000000
24.359076 310.000000
24.378558 291.000000
24.398040 302.000000
24.417523 298.000000
24.437005 307.000000
24.456487 302.000000
24.475970 307.000000
24.495452 296.000000
24.514935 319.000000
24.534417 295.000000
24.553899 304.000000
24.573382 327.000000
24.592864 295.000000
24.612346 310.000000
24.631829 296.000000
24.651311 311.000000
24.670794 311.000000
24.690276 292.000000
24.709758 297.000000
24.729241 307.000000
24.748723 315.000000
24.768205 329.000000
24.787688 314.000000
24.807170 307.000000
24.826652 299.000000
24.846135 295.000000
24.865617 282.000000
24.885100 284.000000
24.904582 325.000000
24.924064 287.000000
24.943547 305.000000
24.963029 287.000000
24.982511 286.000000
25.001994 319.000000
25.021476 312.000000
25.040959 335.000000
25.060441 295.000000
25.079923 283.000000
25.099406 300.000000
25.118888 292.000000
25.138370 283.000000
25.157853 301.000000
25.177335 298.000000
25.196817 300.000000
25.216300 282.000000
25.235782 322.000000
25.255265 311.000000
25.274747 280.000000
25.294229 306.000000
25.313712 304.000000
25.333194 303.000000
25.352676 295.000000
25.372159 316.000000
25.391641 288.000000
25.411124 290.000000
25.430606 278.000000
25.450088 319.000000
25.469571 294.000000
25.489053 279.000000
25.508535 278.000000
25.528018 322.000000
25.547500 349.000000
25.566982 300.000000
25.586465 321.000000
25.605947 280.000000
25.625430 274.000000
25.644912 301.000000
25.664394 325.000000
25.683877 298.000000
25.703359 291.000000
25.722841 313.000000
25.742324 341.000000
25.761806 288.000000
25.781289 321.000000
25.800771 295.000000
25.820253 331.000000
25.839736 331.000000
25.859218 321.000000
25.878700 301.000000
25.898183 296.000000
25.917665 321.000000
25.937148 290.000000
25.956630 303.000000
25.976112 289.000000
25.995595 314.000000
26.015077 259.000000
26.034559 277.000000
26.054042 306.000000
26.073524 288.000000
26.093006 261.000000
26.112489 327.000000
26.131971 290.000000
26.151454 279.000000
26.170936 289.000000
26.190418 331.000000
26.209901 295.000000
26.229383 307.000000
26.248865 302.000000
26.268348 318.000000
26.287830 311.000000
26.307313 340.000000
26.326795 311.000000
26.346277 324.000000
26.365760 286.000000
26.385242 304.000000
26.404724 280.000000
26.424207 324.000000
26.443689 288.000000
26.463171 315.000000
26.482654 329.000000
26.502136 316.000000
26.521619 292.000000
26.541101 286.000000
26.560583 307.000000
26.580066 313.000000
26.599548 297.000000
26.619030 300.000000
26.638513 302.000000
26.657995 329.000000
26.677478 312.000000
26.696960 310.000000
26.716442 316.000000
26.735925 310.000000
26.755407 315.000000
26.774889 310.000000
26.794372 313.000000
26.813854 316.000000
26.833336 299.000000
26.852819 312.000000
26.872301 301.000000
26.891784 342.000000
26.911266 310.000000
26.930748 328.000000
26.950231 350.000000
26.969713 309.000000
26.989195 332.000000
27.008678 322.000000
27.028160 283.000000
27.047643 294.000000
27.067125 294.000000
27.086607 335.000000
27.106090 300.000000
27.125572 309.000000
27.145054 308.000000
27.164537 292.000000
27.184019 300.000000
27.203501 332.000000
27.222984 331.000000
27.242466 314.000000
27.261949 307.000000
27.281431 316.000000
27.300913 300.000000
27.320396 285.000000
27.339878 311.000000
27.359360 313.000000
27.378843 286.000000
27.398325 307.000000
27.417808 335.000000
27.437290 290.000000
27.456772 315.000000
27.476255 297.000000
27.495737 303.000000
27.515219 303.000000
27.534702 326.000000
27.554184 338.000000
27.573667 277.000000
27.593149 307.000000
27.612631 321.000000
27.632114 313.000000
27.651596 313.000000
27.671078 291.000000
27.690561 315.000000
27.710043 318.000000
27.729525 302.000000
27.749008 315.000000
27.768490 332.000000
27.787973 299.000000
27.807455 321.000000
27.826937 338.000000
27.846420 317.000000
27.865902 285.000000
27.885384 296.000000
27.904867 305.000000
27.924349 311.000000
27.943832 270.000000
27.963314 304.000000
27.982796 305.000000
28.002279 320.000000
28.021761 328.000000
28.041243 297.000000
28.060726 345.000000
28.080208 318.000000
28.099690 314.000000
28.119173 293.000000
28.138655 335.000000
28.158138 296.000000
28.177620 317.000000
28.197102 315.000000
28.216585 309.000000
28.236067 320.000000
28.255549 322.000000
28.275032 343.000000
28.294514 307.000000
28.313997 329.000000
28.333479 341.000000
28.352961 291.000000
28.372444 343.000000
28.391926 314.000000
28.411408 305.000000
28.430891 379.000000
28.450373 398.000000
28.469855 491.000000
28.489338 786.000000
28.508820 1060.000000
28.528303 913.000000
28.547785 636.000000
28.567267 667.000000
28.586750 739.000000
28.606232 542.000000
28.625714 362.000000
28.645197 354.000000
28.664679 360.000000
28.684162 303.000000
28.703644 338.000000
28.723126 314.000000
28.742609 335.000000
28.762091 317.000000
28.781573 314.000000
28.801056 345.000000
28.820538 321.000000
28.840020 309.000000
28.859503 306.000000
28.878985 316.000000
28.898468 304.000000
28.917950 311.000000
28.937432 289.000000
28.956915 295.000000
28.976397 344.000000
28.995879 341.000000
29.015362 283.000000
29.034844 324.000000
29.054327 315.000000
29.073809 335.000000
29.093291 306.000000
29.112774 319.000000
29.132256 309.000000
29.151738 309.000000
29.171221 300.000000
29.190703 312.000000
29.210185 325.000000
29.229668 282.000000
29.249150 277.000000
29.268633 298.000000
29.288115 346.000000
29.307597 346.000000
29.327080 309.000000
29.346562 315.000000
29.366044 328.000000
29.385527 301.000000
29.405009 317.000000
29.424492 312.000000
29.443974 290.000000
29.463456 337.000000
29.482939 347.000000
29.502421 348.000000
29.521903 305.000000
29.541386 304.000000
29.560868 330.000000
29.580351 302.000000
29.599833 318.000000
29.619315 311.000000
29.638798 284.000000
29.658280 345.000000
29.677762 301.000000
29.697245 302.000000
29.716727 311.000000
29.736209 291.000000
29.755692 306.000000
29.775174 306.000000
29.794657 325.000000
29.814139 314.000000
29.833621 304.000000
29.853104 310.000000
29.872586 304.000000
29.892068 319.000000
29.911551 266.000000
29.931033 318.000000
29.950516 292.000000
29.969998 334.000000
29.989480 323.000000
30.008963 321.000000
30.028445 299.000000
30.047927 294.000000
30.067410 319.000000
30.086892 305.000000
30.106374 305.000000
30.125857 331.000000
30.145339 329.000000
30.164822 327.000000
30.184304 323.000000
30.203786 310.000000
30.223269 324.000000
30.242751 332.000000
30.262233 345.000000
30.281716 324.000000
30.301198 298.000000
30.320681 290.000000
30.340163 291.000000
30.359645 331.000000
30.379128 290.000000
30.398610 298.000000
30.418092 355.000000
30.437575 297.000000
30.457057 291.000000
30.476539 324.000000
30.496022 336.000000
30.515504 317.000000
30.534987 316.000000
30.554469 309.000000
30.573951 313.000000
30.593434 295.000000
30.612916 340.000000
30.632398 316.000000
30.651881 302.000000
30.671363 299.000000
30.690846 280.000000
30.710328 322.000000
30.729810 311.000000
30.749293 316.000000
30.768775 292.000000
30.788257 273.000000
30.807740 327.000000
30.827222 346.000000
30.846704 303.000000
30.866187 334.000000
30.885669 328.000000
30.905152 333.000000
30.924634 325.000000
30.944116 316.000000
30.963599 341.000000
30.983081 315.000000
31.002563 314.000000
31.022046 327.000000
31.041528 320.000000
31.061011 270.000000
31.080493 318.000000
31.099975 326.000000
31.119458 309.000000
31.138940 323.000000
31.158422 313.000000
31.177905 333.000000
31.197387 272.000000
31.216870 342.000000
31.236352 272.000000
31.255834 308.000000
31.275317 294.000000
31.294799 294.000000
31.314281 326.000000
31.333764 331.000000
31.353246 329.000000
31.372728 297.000000
31.392211 281.000000
31.411693 307.000000
31.431176 316.000000
31.450658 304.000000
31.470140 296.000000
31.489623 317.000000
31.509105 297.000000
31.528587 287.000000
31.548070 323.000000
31.567552 284.000000
31.587035 338.000000
31.606517 320.000000
31.625999 295.000000
31.645482 295.000000
31.664964 307.000000
31.684446 306.000000
31.703929 319.000000
31.723411 310.000000
31.742893 291.000000
31.762376 324.000000
31.781858 326.000000
31.801341 322.000000
31.820823 300.000000
31.840305 327.000000
31.859788 341.000000
31.879270 301.000000
31.898752 296.000000
31.918235 324.000000
31.937717 331.000000
31.957200 311.000000
31.976682 315.000000
31.996164 314.000000
32.015647 321.000000
32.035129 313.000000
32.054611 366.000000
32.074094 326.000000
32.093576 314.000000
32.113058 300.000000
32.132541 334.000000
32.152023 331.000000
32.171506 327.000000
32.190988 320.000000
32.210470 324.000000
32.229953 317.000000
32.249435 331.000000
32.268917 334.000000
32.288400 324.000000
32.307882 330.000000
32.327365 316.000000
32.346847 328.000000
32.366329 330.000000
32.385812 323.000000
32.405294 340.000000
32.424776 289.000000
32.444259 312.000000
32.463741 312.000000
32.483223 317.000000
32.502706 297.000000
32.522188 299.000000
32.541671 294.000000
32.561153 321.000000
32.580635 305.000000
32.600118 308.000000
32.619600 269.000000
32.639082 347.000000
32.658565 321.000000
32.678047 341.000000
32.697530 341.000000
32.717012 302.000000
32.736494 315.000000
32.755977 331.000000
32.775459 318.000000
32.794941 337.000000
32.814424 328.000000
32.833906 332.000000
32.853389 315.000000
32.872871 340.000000
32.892353 336.000000
32.911836 377.000000
32.931318 376.000000
32.950800 400.000000
32.970283 420.000000
32.989765 660.000000
33.009247 1038.000000
33.028730 1871.000000
33.048212 2205.000000
33.067695 1207.000000
33.087177 852.000000
33.106659 1008.000000
33.126142 1309.000000
33.145624 937.000000
33.165106 505.000000
33.184589 419.000000
33.204071 341.000000
33.223554 378.000000
33.243036 351.000000
33.262518 346.000000
33.282001 361.000000
33.301483 348.000000
33.320965 344.000000
33.340448 309.000000
33.359930 305.000000
33.379412 328.000000
33.398895 333.000000
33.418377 329.000000
33.437860 331.000000
33.457342 315.000000
33.476824 304.000000
33.496307 321.000000
33.515789 312.000000
33.535271 304.000000
33.554754 340.000000
33.574236 320.000000
33.593719 322.000000
33.613201 357.000000
33.632683 324.000000
33.652166 331.000000
33.671648 331.000000
33.691130 311.000000
33.710613 319.000000
33.730095 307.000000
33.749577 332.000000
33.769060 340.000000
33.788542 315.000000
33.808025 328.000000
33.827507 319.000000
33.846989 341.000000
33.866472 354.000000
33.885954 316.000000
33.905436 304.000000
33.924919 317.000000
33.944401 323.000000
33.963884 333.000000
33.983366 347.000000
34.002848 288.000000
34.022331 329.000000
34.041813 328.000000
34.061295 286.000000
34.080778 330.000000
34.100260 322.000000
34.119742 316.000000
34.139225 295.000000
34.158707 289.000000
34.178190 289.000000
34.197672 307.000000
34.217154 323.000000
34.236637 350.000000
34.256119 332.000000
34.275601 333.000000
34.295084 304.000000
34.314566 316.000000
34.334049 307.000000
34.353531 332.000000
34.373013 288.000000
34.392496 298.000000
34.411978 331.000000
34.431460 315.000000
34.450943 323.000000
34.470425 319.000000
34.489908 328.000000
34.509390 336.000000
34.528872 332.000000
34.548355 329.000000
34.567837 301.000000
34.587319 348.000000
34.606802 300.000000
34.626284 315.000000
34.645766 337.000000
34.665249 321.000000
34.684731 296.000000
34.704214 341.000000
34.723696 304.000000
34.743178 327.000000
34.762661 320.000000
34.782143 316.000000
34.801625 309.000000
34.821108 348.000000
34.840590 298.000000
34.860073 309.000000
34.879555 320.000000
34.899037 348.000000
34.918520 312.000000
34.938002 313.000000
34.957484 342.000000
34.976967 309.000000
34.996449 333.000000
35.015931 337.000000
35.035414 343.000000
35.054896 322.000000
35.074379 317.000000
35.093861 305.000000
35.113343 339.000000
35.132826 318.000000
35.152308 350.000000
35.171790 319.000000
35.191273 278.000000
35.210755 351.000000
35.230238 314.000000
35.249720 317.000000
35.269202 296.000000
35.288685 322.000000
35.308167 295.000000
35.327649 337.000000
35.347132 323.000000
35.366614 338.000000
35.386096 330.000000
35.405579 317.000000
35.425061 311.000000
35.444544 309.000000
35.464026 298.000000
35.483508 312.000000
35.502991 308.000000
35.522473 304.000000
35.541955 335.000000
35.561438 335.000000
35.580920 294.000000
35.600403 320.000000
35.619885 321.000000
35.639367 305.000000
35.658850 308.000000
35.678332 335.000000
35.697814 319.000000
35.717297 343.000000
35.736779 306.000000
35.756261 317.000000
35.775744 305.000000
35.795226 352.000000
35.814709 342.000000
35.834191 323.000000
35.853673 315.000000
35.873156 311.000000
35.892638 336.000000
35.912120 313.000000
35.931603 315.000000
35.951085 343.000000
35.970568 313.000000
35.990050 344.000000
36.009532 332.000000
36.029015 342.000000
36.048497 318.000000
36.067979 343.000000
36.087462 340.000000
36.106944 289.000000
36.126426 367.000000
36.145909 348.000000
36.165391 308.000000
36.184874 332.000000
36.204356 308.000000
36.223838 309.000000
36.243321 333.000000
36.262803 312.000000
36.282285 304.000000
36.301768 352.000000
36.321250 337.000000
36.340733 299.000000
36.360215 329.000000
36.379697 337.000000
36.399180 326.000000
36.418662 343.000000
36.438144 309.000000
36.457627 314.000000
36.477109 313.000000
36.496592 343.000000
36.516074 319.000000
36.535556 321.000000
36.555039 337.000000
36.574521 351.000000
36.594003 310.000000
36.613486 347.000000
36.632968 329.000000
36.652450 352.000000
36.671933 301.000000
36.691415 321.000000
36.710898 301.000000
36.730380 340.000000
36.749862 316.000000
36.769345 298.000000
36.788827 324.000000
36.808309 315.000000
36.827792 341.000000
36.847274 290.000000
36.866757 318.000000
36.886239 365.000000
36.905721 349.000000
36.925204 338.000000
36.944686 319.000000
36.964168 346.000000
36.983651 364.000000
37.003133 384.000000
37.022615 499.000000
37.042098 706.000000
37.061580 935.000000
37.081063 1148.000000
37.100545 782.000000
37.120027 532.000000
37.139510 572.000000
37.158992 705.000000
37.178474 754.000000
37.197957 569.000000
37.217439 412.000000
37.236922 365.000000
37.256404 325.000000
37.275886 305.000000
37.295369 319.000000
37.314851 356.000000
37.334333 299.000000
37.353816 328.000000
37.373298 345.000000
37.392780 325.000000
37.412263 343.000000
37.431745 328.000000
37.451228 343.000000
37.470710 320.000000
37.490192 317.000000
37.509675 367.000000
37.529157 330.000000
37.548639 318.000000
37.568122 333.000000
37.587604 331.000000
37.607087 281.000000
37.626569 355.000000
37.646051 320.000000
37.665534 361.000000
37.685016 342.000000
37.704498 378.000000
37.723981 332.000000
37.743463 326.000000
37.762945 368.000000
37.782428 348.000000
37.801910 292.000000
37.821393 330.000000
37.840875 316.000000
37.860357 311.000000
37.879840 313.000000
37.899322 321.000000
37.918804 313.000000
37.938287 299.000000
37.957769 320.000000
37.977252 361.000000
37.996734 325.000000
38.016216 343.000000
38.035699 315.000000
38.055181 312.000000
38.074663 336.000000
38.094146 348.000000
38.113628 335.000000
38.133111 365.000000
38.152593 322.000000
38.172075 328.000000
38.191558 331.000000
38.211040 301.000000
38.230522 360.000000
38.250005 298.000000
38.269487 315.000000
38.288969 325.000000
38.308452 338.000000
38.327934 340.000000
38.347417 367.000000
38.366899 339.000000
38.386381 341.000000
38.405864 302.000000
38.425346 321.000000
38.444828 328.000000
38.464311 320.000000
38.483793 337.000000
38.503276 316.000000
38.522758 325.000000
38.542240 312.000000
38.561723 320.000000
38.581205 327.000000
38.600687 327.000000
38.620170 352.000000
38.639652 341.000000
38.659134 325.000000
38.678617 307.000000
38.698099 338.000000
38.717582 297.000000
38.737064 319.000000
38.756546 339.000000
38.776029 300.000000
38.795511 325.000000
38.814993 321.000000
38.834476 354.000000
38.853958 339.000000
38.873441 326.000000
38.892923 300.000000
38.912405 321.000000
38.931888 329.000000
38.951370 329.000000
38.970852 322.000000
38.990335 356.000000
39.009817 310.000000
39.029299 330.000000
39.048782 312.000000
39.068264 305.000000
39.087747 306.000000
39.107229 359.000000
39.126711 319.000000
39.146194 346.000000
39.165676 345.000000
39.185158 313.000000
39.204641 331.000000
39.224123 292.000000
39.243606 313.000000
39.263088 333.000000
39.282570 319.000000
39.302053 328.000000
39.321535 327.000000
39.341017 358.000000
39.360500 351.000000
39.379982 328.000000
39.399464 334.000000
39.418947 332.000000
39.438429 352.000000
39.457912 336.000000
39.477394 343.000000
39.496876 313.000000
39.516359 344.000000
39.535841 311.000000
39.555323 339.000000
39.574806 325.000000
39.594288 348.000000
39.613771 364.000000
39.633253 329.000000
39.652735 320.000000
39.672218 301.000000
39.691700 322.000000
39.711182 332.000000
39.730665 338.000000
39.750147 312.000000
39.769630 346.000000
39.789112 327.000000
39.808594 316.000000
39.828077 327.000000
39.847559 315.000000
39.867041 333.000000
39.886524 351.000000
39.906006 326.000000
39.925488 336.000000
39.944971 323.000000
39.964453 305.000000
39.983936 316.000000
40.003418 328.000000
40.022900 359.000000
40.042383 341.000000
40.061865 331.000000
40.081347 343.000000
40.100830 337.000000
40.120312 340.000000
40.139795 317.000000
40.159277 309.000000
40.178759 326.000000
40.198242 340.000000
40.217724 327.000000
40.237206 357.000000
40.256689 309.000000
40.276171 325.000000
40.295653 324.000000
40.315136 308.000000
40.334618 317.000000
40.354101 326.000000
40.373583 363.000000
40.393065 334.000000
40.412548 330.000000
40.432030 349.000000
40.451512 320.000000
40.470995 336.000000
40.490477 304.000000
40.509960 326.000000
40.529442 323.000000
40.548924 365.000000
40.568407 327.000000
40.587889 332.000000
40.607371 358.000000
40.626854 367.000000
40.646336 350.000000
40.665818 352.000000
40.685301 401.000000
40.704783 445.000000
40.724266 548.000000
40.743748 812.000000
40.763230 1134.000000
40.782713 1096.000000
40.802195 611.000000
40.821677 498.000000
40.841160 521.000000
40.860642 688.000000
40.880125 745.000000
40.899607 558.000000
40.919089 413.000000
40.938572 409.000000
40.958054 356.000000
40.977536 370.000000
40.997019 357.000000
41.016501 349.000000
41.035983 341.000000
41.055466 380.000000
41.074948 351.000000
41.094431 330.000000
41.113913 328.000000
41.133395 346.000000
41.152878 338.000000
41.172360 352.000000
41.191842 360.000000
41.211325 312.000000
41.230807 323.000000
41.250290 365.000000
41.269772 319.000000
41.289254 331.000000
41.308737 325.000000
41.328219 327.000000
41.347701 360.000000
41.367184 351.000000
41.386666 321.000000
41.406149 374.000000
41.425631 332.000000
41.445113 314.000000
41.464596 358.000000
41.484078 352.000000
41.503560 330.000000
41.523043 398.000000
41.542525 336.000000
41.562007 336.000000
41.581490 344.000000
41.600972 334.000000
41.620455 325.000000
41.639937 349.000000
41.659419 334.000000
41.678902 325.000000
41.698384 318.000000
41.717866 320.000000
41.737349 329.000000
41.756831 304.000000
41.776314 348.000000
41.795796 350.000000
41.815278 336.000000
41.834761 325.000000
41.854243 307.000000
41.873725 310.000000
41.893208 315.000000
41.912690 339.000000
41.932172 329.000000
41.951655 323.000000
41.971137 350.000000
41.990620 339.000000
42.010102 331.000000
42.029584 330.000000
42.049067 338.000000
42.068549 333.000000
42.088031 356.000000
42.107514 328.000000
42.126996 333.000000
42.146479 349.000000
42.165961 344.000000
42.185443 310.000000
42.204926 320.000000
42.224408 311.000000
42.243890 316.000000
42.263373 321.000000
42.282855 326.000000
42.302337 341.000000
42.321820 318.000000
42.341302 336.000000
42.360785 324.000000
42.380267 310.000000
42.399749 361.000000
42.419232 331.000000
42.438714 327.000000
42.458196 347.000000
42.477679 298.000000
42.497161 317.000000
42.516644 301.000000
42.536126 293.000000
42.555608 343.000000
42.575091 309.000000
42.594573 315.000000
42.614055 331.000000
42.633538 352.000000
42.653020 358.000000
42.672502 334.000000
42.691985 308.000000
42.711467 332.000000
42.730950 347.000000
42.750432 319.000000
42.769914 332.000000
42.789397 340.000000
42.808879 317.000000
42.828361 333.000000
42.847844 376.000000
42.867326 320.000000
42.886809 326.000000
42.906291 300.000000
42.925773 334.000000
42.945256 321.000000
42.964738 341.000000
42.984220 318.000000
43.003703 309.000000
43.023185 335.000000
43.042667 347.000000
43.062150 315.000000
43.081632 370.000000
43.101115 314.000000
43.120597 327.000000
43.140079 360.000000
43.159562 354.000000
43.179044 362.000000
43.198526 360.000000
43.218009 326.000000
43.237491 349.000000
43.256974 335.000000
43.276456 345.000000
43.295938 328.000000
43.315421 319.000000
43.334903 306.000000
43.354385 347.000000
43.373868 328.000000
43.393350 329.000000
43.412833 304.000000
43.432315 296.000000
43.451797 319.000000
43.471280 360.000000
43.490762 320.000000
43.510244 345.000000
43.529727 348.000000
43.549209 356.000000
43.568691 342.000000
43.588174 312.000000
43.607656 337.000000
43.627139 358.000000
43.646621 309.000000
43.666103 325.000000
43.685586 338.000000
43.705068 323.000000
43.724550 316.000000
43.744033 341.000000
43.763515 352.000000
43.782998 326.000000
43.802480 346.000000
43.821962 338.000000
43.841445 323.000000
43.860927 363.000000
43.880409 352.000000
43.899892 368.000000
43.919374 321.000000
43.938856 332.000000
43.958339 329.000000
43.977821 311.000000
43.997304 332.000000
44.016786 366.000000
44.036268 363.000000
44.055751 334.000000
44.075233 337.000000
44.094715 334.000000
44.114198 349.000000
44.133680 353.000000
44.153163 324.000000
44.172645 332.000000
44.192127 318.000000
44.211610 332.000000
44.231092 322.000000
44.250574 364.000000
44.270057 339.000000
44.289539 319.000000
44.309021 324.000000
44.328504 354.000000
44.347986 301.000000
44.367469 296.000000
44.386951 352.000000
44.406433 310.000000
44.425916 333.000000
44.445398 342.000000
44.464880 317.000000
44.484363 371.000000
44.503845 339.000000
44.523328 340.000000
44.542810 382.000000
44.562292 352.000000
44.581775 316.000000
44.601257 354.000000
44.620739 322.000000
44.640222 343.000000
44.659704 346.000000
44.679186 316.000000
44.698669 319.000000
44.718151 340.000000
44.737634 324.000000
44.757116 331.000000
44.776598 336.000000
44.796081 343.000000
44.815563 334.000000
44.835045 294.000000
44.854528 344.000000
44.874010 352.000000
44.893493 332.000000
44.912975 334.000000
44.932457 352.000000
44.951940 315.000000
44.971422 336.000000
44.990904 335.000000
45.010387 375.000000
45.029869 335.000000
45.049352 316.000000
45.068834 330.000000
45.088316 335.000000
45.107799 326.000000
45.127281 309.000000
45.146763 330.000000
45.166246 296.000000
45.185728 333.000000
45.205210 336.000000
45.224693 337.000000
45.244175 330.000000
45.263658 341.000000
45.283140 293.000000
45.302622 315.000000
45.322105 352.000000
45.341587 354.000000
45.361069 368.000000
45.380552 310.000000
45.400034 327.000000
45.419517 360.000000
45.438999 329.000000
45.458481 336.000000
45.477964 378.000000
45.497446 340.000000
45.516928 343.000000
45.536411 328.000000
45.555893 339.000000
45.575375 320.000000
45.594858 346.000000
45.614340 321.000000
45.633823 302.000000
45.653305 328.000000
45.672787 323.000000
45.692270 292.000000
45.711752 369.000000
45.731234 312.000000
45.750717 344.000000
45.770199 314.000000
45.789682 333.000000
45.809164 337.000000
45.828646 367.000000
45.848129 324.000000
45.867611 326.000000
45.887093 354.000000
45.906576 346.000000
45.926058 339.000000
45.945540 346.000000
45.965023 333.000000
45.984505 322.000000
46.003988 372.000000
46.023470 347.000000
46.042952 346.000000
46.062435 357.000000
46.081917 324.000000
46.101399 341.000000
46.120882 353.000000
46.140364 327.000000
46.159847 365.000000
46.179329 325.000000
46.198811 344.000000
46.218294 352.000000
46.237776 315.000000
46.257258 339.000000
46.276741 334.000000
46.296223 342.000000
46.315705 371.000000
46.335188 334.000000
46.354670 294.000000
46.374153 322.000000
46.393635 350.000000
46.413117 339.000000
46.432600 353.000000
46.452082 335.000000
46.471564 336.000000
46.491047 350.000000
46.510529 333.000000
46.530012 362.000000
46.549494 387.000000
46.568976 319.000000
46.588459 338.000000
46.607941 336.000000
46.627423 317.000000
46.646906 319.000000
46.666388 359.000000
46.685871 363.000000
46.705353 358.000000
46.724835 376.000000
46.744318 353.000000
46.763800 352.000000
46.783282 305.000000
46.802765 343.000000
46.822247 316.000000
46.841729 327.000000
46.861212 345.000000
46.880694 368.000000
46.900177 318.000000
46.919659 321.000000
46.939141 358.000000
46.958624 332.000000
46.978106 346.000000
46.997588 340.000000
47.017071 318.000000
47.036553 384.000000
47.056036 353.000000
47.075518 361.000000
47.095000 327.000000
47.114483 345.000000
47.133965 378.000000
47.153447 342.000000
47.172930 340.000000
47.192412 336.000000
47.211894 359.000000
47.231377 332.000000
47.250859 357.000000
47.270342 367.000000
47.289824 368.000000
47.309306 357.000000
47.328789 376.000000
47.348271 406.000000
47.367753 433.000000
47.387236 533.000000
47.406718 727.000000
47.426201 961.000000
47.445683 948.000000
47.465165 707.000000
47.484648 483.000000
47.504130 418.000000
47.523612 533.000000
47.543095 645.000000
47.562577 687.000000
47.582059 538.000000
47.601542 428.000000
47.621024 418.000000
47.640507 356.000000
47.659989 373.000000
47.679471 337.000000
47.698954 348.000000
47.718436 323.000000
47.737918 362.000000
47.757401 364.000000
47.776883 338.000000
47.796366 323.000000
47.815848 382.000000
47.835330 345.000000
47.854813 320.000000
47.874295 309.000000
47.893777 325.000000
47.913260 338.000000
47.932742 376.000000
47.952224 366.000000
47.971707 340.000000
47.991189 356.000000
48.010672 336.000000
48.030154 356.000000
48.049636 376.000000
48.069119 326.000000
48.088601 328.000000
48.108083 363.000000
48.127566 323.000000
48.147048 361.000000
48.166531 337.000000
48.186013 370.000000
48.205495 362.000000
48.224978 362.000000
48.244460 359.000000
48.263942 347.000000
48.283425 340.000000
48.302907 362.000000
48.322389 372.000000
48.341872 356.000000
48.361354 356.000000
48.380837 354.000000
48.400319 338.000000
48.419801 345.000000
48.439284 333.000000
48.458766 360.000000
48.478248 357.000000
48.497731 371.000000
48.517213 349.000000
48.536696 359.000000
48.556178 353.000000
48.575660 325.000000
48.595143 346.000000
48.614625 339.000000
48.634107 334.000000
48.653590 334.000000
48.673072 344.000000
48.692555 329.000000
48.712037 381.000000
48.731519 353.000000
48.751002 340.000000
48.770484 348.000000
48.789966 365.000000
48.809449 353.000000
48.828931 368.000000
48.848413 318.000000
48.867896 361.000000
48.887378 297.000000
48.906861 348.000000
48.926343 335.000000
48.945825 331.000000
48.965308 362.000000
48.984790 302.000000
49.004272 365.000000
49.023755 332.000000
49.043237 333.000000
49.062720 399.000000
49.082202 355.000000
49.101684 344.000000
49.121167 355.000000
49.140649 344.000000
49.160131 344.000000
49.179614 339.000000
49.199096 368.000000
49.218578 373.000000
49.238061 345.000000
49.257543 316.000000
49.277026 370.000000
49.296508 348.000000
49.315990 333.000000
49.335473 350.000000
49.354955 370.000000
49.374437 351.000000
49.393920 342.000000
49.413402 353.000000
49.432885 349.000000
49.452367 362.000000
49.471849 313.000000
49.491332 360.000000
49.510814 328.000000
49.530296 337.000000
49.549779 348.000000
49.569261 333.000000
49.588743 374.000000
49.608226 375.000000
49.627708 317.000000
49.647191 365.000000
49.666673 364.000000
49.686155 346.000000
49.705638 357.000000
49.725120 334.000000
49.744602 351.000000
49.764085 340.000000
49.783567 347.000000
49.803050 366.000000
49.822532 385.000000
49.842014 325.000000
49.861497 331.000000
49.880979 356.000000
49.900461 351.000000
49.919944 320.000000
49.939426 345.000000
49.958908 343.000000
49.978391 336.000000
49.997873 336.000000
50.017356 374.000000
50.036838 324.000000
50.056320 345.000000
50.075803 337.000000
50.095285 362.000000
50.114767 367.000000
50.134250 348.000000
50.153732 342.000000
50.173215 308.000000
50.192697 328.000000
50.212179 359.000000
50.231662 324.000000
50.251144 339.000000
50.270626 355.000000
50.290109 363.000000
50.309591 317.000000
50.329074 373.000000
50.348556 379.000000
50.368038 349.000000
50.387521 348.000000
50.407003 321.000000
50.426485 340.000000
50.445968 339.000000
50.465450 355.000000
50.484932 372.000000
50.504415 371.000000
50.523897 370.000000
50.543380 353.000000
50.562862 384.000000
50.582344 317.000000
50.601827 337.000000
50.621309 357.000000
50.640791 344.000000
50.660274 351.000000
50.679756 375.000000
50.699239 342.000000
50.718721 354.000000
50.738203 352.000000
50.757686 335.000000
50.777168 357.000000
50.796650 329.000000
50.816133 340.000000
50.835615 353.000000
50.855097 349.000000
50.874580 362.000000
50.894062 357.000000
50.913545 357.000000
50.933027 375.000000
50.952509 349.000000
50.971992 335.000000
50.991474 352.000000
51.010956 359.000000
51.030439 374.000000
51.049921 316.000000
51.069404 324.000000
51.088886 319.000000
51.108368 334.000000
51.127851 372.000000
51.147333 373.000000
51.166815 364.000000
51.186298 343.000000
51.205780 332.000000
51.225262 387.000000
51.244745 337.000000
51.264227 346.000000
51.283710 351.000000
51.303192 350.000000
51.322674 375.000000
51.342157 369.000000
51.361639 339.000000
51.381121 356.000000
51.400604 355.000000
51.420086 326.000000
51.439569 346.000000
51.459051 313.000000
51.478533 336.000000
51.498016 359.000000
51.517498 361.000000
51.536980 350.000000
51.556463 351.000000
51.575945 344.000000
51.595427 349.000000
51.614910 352.000000
51.634392 334.000000
51.653875 353.000000
51.673357 333.000000
51.692839 374.000000
51.712322 401.000000
51.731804 351.000000
51.751286 341.000000
51.770769 319.000000
51.790251 330.000000
51.809734 353.000000
51.829216 330.000000
51.848698 365.000000
51.868181 332.000000
51.887663 362.000000
51.907145 364.000000
51.926628 345.000000
51.946110 358.000000
51.965593 341.000000
51.985075 356.000000
52.004557 339.000000
52.024040 329.000000
52.043522 353.000000
52.063004 344.000000
52.082487 355.000000
52.101969 359.000000
52.121451 346.000000
52.140934 339.000000
52.160416 333.000000
52.179899 361.000000
52.199381 344.000000
52.218863 355.000000
52.238346 322.000000
52.257828 352.000000
52.277310 329.000000
52.296793 347.000000
52.316275 364.000000
52.335758 331.000000
52.355240 345.000000
52.374722 384.000000
52.394205 345.000000
52.413687 345.000000
52.433169 359.000000
52.452652 381.000000
52.472134 311.000000
52.491616 351.000000
52.511099 350.000000
52.530581 328.000000
52.550064 353.000000
52.569546 334.000000
52.589028 315.000000
52.608511 330.000000
52.627993 351.000000
52.647475 377.000000
52.666958 336.000000
52.686440 340.000000
52.705923 412.000000
52.725405 330.000000
52.744887 355.000000
52.764370 327.000000
52.783852 356.000000
52.803334 361.000000
52.822817 357.000000
52.842299 364.000000
52.861781 358.000000
52.881264 345.000000
52.900746 353.000000
52.920229 342.000000
52.939711 364.000000
52.959193 367.000000
52.978676 357.000000
52.998158 352.000000
53.017640 357.000000
53.037123 361.000000
53.056605 332.000000
53.076088 366.000000
53.095570 359.000000
53.115052 359.000000
53.134535 356.000000
53.154017 385.000000
53.173499 376.000000
53.192982 331.000000
53.212464 372.000000
53.231946 360.000000
53.251429 333.000000
53.270911 323.000000
53.290394 376.000000
53.309876 373.000000
53.329358 333.000000
53.348841 367.000000
53.368323 334.000000
53.387805 340.000000
53.407288 367.000000
53.426770 328.000000
53.446253 362.000000
53.465735 334.000000
53.485217 354.000000
53.504700 348.000000
53.524182 299.000000
53.543664 363.000000
53.563147 324.000000
53.582629 348.000000
53.602112 381.000000
53.621594 347.000000
53.641076 369.000000
53.660559 353.000000
53.680041 323.000000
53.699523 337.000000
53.719006 364.000000
53.738488 360.000000
53.757970 311.000000
53.777453 365.000000
53.796935 356.000000
53.816418 367.000000
53.835900 320.000000
53.855382 349.000000
53.874865 346.000000
53.894347 317.000000
53.913829 383.000000
53.933312 360.000000
53.952794 338.000000
53.972277 349.000000
53.991759 318.000000
54.011241 316.000000
54.030724 367.000000
54.050206 349.000000
54.069688 349.000000
54.089171 366.000000
54.108653 344.000000
54.128135 370.000000
54.147618 338.000000
54.167100 353.000000
54.186583 356.000000
54.206065 352.000000
54.225547 359.000000
54.245030 356.000000
54.264512 380.000000
54.283994 334.000000
54.303477 360.000000
54.322959 353.000000
54.342442 348.000000
54.361924 340.000000
54.381406 348.000000
54.400889 345.000000
54.420371 365.000000
54.439853 370.000000
54.459336 401.000000
54.478818 334.000000
54.498300 324.000000
54.517783 319.000000
54.537265 377.000000
54.556748 355.000000
54.576230 357.000000
54.595712 381.000000
54.615195 368.000000
54.634677 360.000000
54.654159 354.000000
54.673642 363.000000
54.693124 322.000000
54.712607 366.000000
54.732089 345.000000
54.751571 336.000000
54.771054 365.000000
54.790536 380.000000
54.810018 328.000000
54.829501 368.000000
54.848983 348.000000
54.868465 360.000000
54.887948 345.000000
54.907430 358.000000
54.926913 387.000000
54.946395 349.000000
54.965877 349.000000
54.985360 381.000000
55.004842 404.000000
55.024324 358.000000
55.043807 343.000000
55.063289 360.000000
55.082772 366.000000
55.102254 366.000000
55.121736 334.000000
55.141219 382.000000
55.160701 366.000000
55.180183 350.000000
55.199666 371.000000
55.219148 351.000000
55.238630 395.000000
55.258113 339.000000
55.277595 345.000000
55.297078 330.000000
55.316560 365.000000
55.336042 361.000000
55.355525 364.000000
55.375007 326.000000
55.394489 357.000000
55.413972 351.000000
55.433454 305.000000
55.452937 374.000000
55.472419 365.000000
55.491901 354.000000
55.511384 361.000000
55.530866 336.000000
55.550348 344.000000
55.569831 365.000000
55.589313 372.000000
55.608796 349.000000
55.628278 360.000000
55.647760 343.000000
55.667243 376.000000
55.686725 385.000000
55.706207 338.000000
55.725690 369.000000
55.745172 351.000000
55.764654 352.000000
55.784137 348.000000
55.803619 333.000000
55.823102 372.000000
55.842584 326.000000
55.862066 316.000000
55.881549 383.000000
55.901031 365.000000
55.920513 378.000000
55.939996 340.000000
55.959478 393.000000
55.978961 337.000000
55.998443 352.000000
56.017925 347.000000
56.037408 348.000000
56.056890 408.000000
56.076372 390.000000
56.095855 379.000000
56.115337 380.000000
56.134819 445.000000
56.154302 424.000000
56.173784 442.000000
56.193267 531.000000
56.212749 694.000000
56.232231 1063.000000
56.251714 1374.000000
56.271196 1592.000000
56.290678 1385.000000
56.310161 943.000000
56.329643 610.000000
56.349126 566.000000
56.368608 634.000000
56.388090 803.000000
56.407573 913.000000
56.427055 977.000000
56.446537 791.000000
56.466020 617.000000
56.485502 506.000000
56.504984 431.000000
56.524467 398.000000
56.543949 386.000000
56.563432 382.000000
56.582914 372.000000
56.602396 393.000000
56.621879 379.000000
56.641361 413.000000
56.660843 371.000000
56.680326 387.000000
56.699808 346.000000
56.719291 365.000000
56.738773 374.000000
56.758255 347.000000
56.777738 371.000000
56.797220 364.000000
56.816702 354.000000
56.836185 358.000000
56.855667 343.000000
56.875149 372.000000
56.894632 356.000000
56.914114 365.000000
56.933597 387.000000
56.953079 382.000000
56.972561 369.000000
56.992044 348.000000
57.011526 380.000000
57.031008 383.000000
57.050491 344.000000
57.069973 361.000000
57.089456 385.000000
57.108938 348.000000
57.128420 392.000000
57.147903 364.000000
57.167385 359.000000
57.186867 366.000000
57.206350 373.000000
57.225832 366.000000
57.245315 360.000000
57.264797 351.000000
57.284279 374.000000
57.303762 357.000000
57.323244 362.000000
57.342726 371.000000
57.362209 360.000000
57.381691 388.000000
57.401173 360.000000
57.420656 367.000000
57.440138 369.000000
57.459621 359.000000
57.479103 336.000000
57.498585 386.000000
57.518068 340.000000
57.537550 364.000000
57.557032 351.000000
57.576515 371.000000
57.595997 338.000000
57.615480 332.000000
57.634962 366.000000
57.654444 330.000000
57.673927 322.000000
57.693409 350.000000
57.712891 343.000000
57.732374 354.000000
57.751856 369.000000
57.771338 385.000000
57.790821 343.000000
57.810303 375.000000
57.829786 332.000000
57.849268 370.000000
57.868750 363.000000
57.888233 347.000000
57.907715 347.000000
57.927197 361.000000
57.946680 405.000000
57.966162 360.000000
57.985645 341.000000
58.005127 349.000000
58.024609 357.000000
58.044092 358.000000
58.063574 368.000000
58.083056 374.000000
58.102539 372.000000
58.122021 352.000000
58.141503 398.000000
58.160986 335.000000
58.180468 357.000000
58.199951 340.000000
58.219433 367.000000
58.238915 382.000000
58.258398 374.000000
58.277880 360.000000
58.297362 368.000000
58.316845 400.000000
58.336327 369.000000
58.355810 360.000000
58.375292 360.000000
58.394774 358.000000
58.414257 367.000000
58.433739 358.000000
58.453221 396.000000
58.472704 374.000000
58.492186 361.000000
58.511668 339.000000
58.531151 364.000000
58.550633 350.000000
58.570116 359.000000
58.589598 359.000000
58.609080 366.000000
58.628563 333.000000
58.648045 370.000000
58.667527 377.000000
58.687010 377.000000
58.706492 363.000000
58.725975 391.000000
58.745457 358.000000
58.764939 376.000000
58.784422 383.000000
58.803904 426.000000
58.823386 348.000000
58.842869 399.000000
58.862351 382.000000
58.881834 380.000000
58.901316 383.000000
58.920798 351.000000
58.940281 364.000000
58.959763 406.000000
58.979245 468.000000
58.998728 462.000000
59.018210 534.000000
59.037692 481.000000
59.057175 414.000000
59.076657 376.000000
59.096140 341.000000
59.115622 383.000000
59.135104 422.000000
59.154587 419.000000
59.174069 438.000000
59.193551 432.000000
59.213034 401.000000
59.232516 368.000000
59.251999 382.000000
59.271481 345.000000
59.290963 351.000000
59.310446 365.000000
59.329928 361.000000
59.349410 377.000000
59.368893 333.000000
59.388375 336.000000
59.407857 336.000000
59.427340 333.000000
59.446822 414.000000
59.466305 352.000000
59.485787 365.000000
59.505269 383.000000
59.524752 398.000000
59.544234 397.000000
59.563716 341.000000
59.583199 375.000000
59.602681 383.000000
59.622164 353.000000
59.641646 384.000000
59.661128 373.000000
59.680611 335.000000
59.700093 354.000000
59.719575 361.000000
59.739058 348.000000
59.758540 335.000000
59.778022 394.000000
59.797505 366.000000
59.816987 335.000000
59.836470 339.000000
59.855952 321.000000
59.875434 373.000000
59.894917 379.000000
59.914399 349.000000
59.933881 374.000000
59.953364 400.000000
59.972846 357.000000
59.992329 347.000000
60.011811 391.000000
60.031293 342.000000
60.050776 312.000000
60.070258 397.000000
60.089740 354.000000
60.109223 356.000000
60.128705 336.000000
60.148187 368.000000
60.167670 389.000000
60.187152 386.000000
60.206635 334.000000
60.226117 346.000000
60.245599 373.000000
60.265082 378.000000
60.284564 359.000000
60.304046 356.000000
60.323529 378.000000
60.343011 359.000000
60.362494 357.000000
60.381976 349.000000
60.401458 387.000000
60.420941 402.000000
60.440423 361.000000
60.459905 324.000000
60.479388 358.000000
60.498870 379.000000
60.518352 351.000000
60.537835 382.000000
60.557317 336.000000
60.576800 336.000000
60.596282 361.000000
60.615764 373.000000
60.635247 365.000000
60.654729 367.000000
60.674211 340.000000
60.693694 363.000000
60.713176 389.000000
60.732659 322.000000
60.752141 358.000000
60.771623 373.000000
60.791106 344.000000
60.810588 332.000000
60.830070 352.000000
60.849553 371.000000
60.869035 358.000000
60.888518 350.000000
60.908000 324.000000
60.927482 358.000000
60.946965 374.000000
60.966447 366.000000
60.985929 368.000000
61.005412 374.000000
61.024894 384.000000
61.044376 375.000000
61.063859 372.000000
61.083341 358.000000
61.102824 329.000000
61.122306 379.000000
61.141788 323.000000
61.161271 351.000000
61.180753 373.000000
61.200235 352.000000
61.219718 364.000000
61.239200 382.000000
61.258683 372.000000
61.278165 380.000000
61.297647 352.000000
61.317130 377.000000
61.336612 376.000000
61.356094 362.000000
61.375577 378.000000
61.395059 371.000000
61.414541 372.000000
61.434024 350.000000
61.453506 361.000000
61.472989 395.000000
61.492471 386.000000
61.511953 385.000000
61.531436 352.000000
61.550918 366.000000
61.570400 365.000000
61.589883 397.000000
61.609365 429.000000
61.628848 435.000000
61.648330 512.000000
61.667812 600.000000
61.687295 711.000000
61.706777 522.000000
61.726259 464.000000
61.745742 422.000000
61.765224 391.000000
61.784706 421.000000
61.804189 399.000000
61.823671 439.000000
61.843154 505.000000
61.862636 494.000000
61.882118 480.000000
61.901601 416.000000
61.921083 382.000000
61.940565 368.000000
61.960048 393.000000
61.979530 374.000000
61.999013 343.000000
62.018495 367.000000
62.037977 362.000000
62.057460 385.000000
62.076942 370.000000
62.096424 412.000000
62.115907 359.000000
62.135389 400.000000
62.154871 364.000000
62.174354 333.000000
62.193836 390.000000
62.213319 384.000000
62.232801 403.000000
62.252283 391.000000
62.271766 361.000000
62.291248 373.000000
62.310730 387.000000
62.330213 403.000000
62.349695 359.000000
62.369178 355.000000
62.388660 395.000000
62.408142 371.000000
62.427625 359.000000
62.447107 376.000000
62.466589 371.000000
62.486072 364.000000
62.505554 375.000000
62.525037 382.000000
62.544519 391.000000
62.564001 382.000000
62.583484 358.000000
62.602966 366.000000
62.622448 359.000000
62.641931 347.000000
62.661413 372.000000
62.680895 353.000000
62.700378 356.000000
62.719860 351.000000
62.739343 345.000000
62.758825 370.000000
62.778307 387.000000
62.797790 374.000000
62.817272 323.000000
62.836754 372.000000
62.856237 376.000000
62.875719 368.000000
62.895202 398.000000
62.914684 357.000000
62.934166 361.000000
62.953649 381.000000
62.973131 372.000000
62.992613 341.000000
63.012096 331.000000
63.031578 352.000000
63.051060 366.000000
63.070543 380.000000
63.090025 379.000000
63.109508 346.000000
63.128990 357.000000
63.148472 411.000000
63.167955 364.000000
63.187437 370.000000
63.206919 366.000000
63.226402 387.000000
63.245884 364.000000
63.265367 394.000000
63.284849 354.000000
63.304331 355.000000
63.323814 371.000000
63.343296 370.000000
63.362778 399.000000
63.382261 352.000000
63.401743 369.000000
63.421225 345.000000
63.440708 368.000000
63.460190 352.000000
63.479673 371.000000
63.499155 348.000000
63.518637 350.000000
63.538120 371.000000
63.557602 340.000000
63.577084 358.000000
63.596567 352.000000
63.616049 367.000000
63.635532 383.000000
63.655014 419.000000
63.674496 375.000000
63.693979 374.000000
63.713461 339.000000
63.732943 383.000000
63.752426 377.000000
63.771908 369.000000
63.791390 355.000000
63.810873 333.000000
63.830355 386.000000
63.849838 340.000000
63.869320 364.000000
63.888802 368.000000
63.908285 348.000000
63.927767 368.000000
63.947249 371.000000
63.966732 348.000000
63.986214 327.000000
64.005697 357.000000
64.025179 329.000000
64.044661 378.000000
64.064144 374.000000
64.083626 361.000000
64.103108 367.000000
64.122591 390.000000
64.142073 377.000000
64.161556 371.000000
64.181038 399.000000
64.200520 401.000000
64.220003 443.000000
64.239485 513.000000
64.258967 569.000000
64.278450 705.000000
64.297932 683.000000
64.317414 534.000000
64.336897 464.000000
64.356379 428.000000
64.375862 445.000000
64.395344 405.000000
64.414826 421.000000
64.434309 493.000000
64.453791 516.000000
64.473273 563.000000
64.492756 479.000000
64.512238 398.000000
64.531721 411.000000
64.551203 387.000000
64.570685 389.000000
64.590168 356.000000
64.609650 372.000000
64.629132 360.000000
64.648615 354.000000
64.668097 354.000000
64.687579 350.000000
64.707062 385.000000
64.726544 341.000000
64.746027 371.000000
64.765509 380.000000
64.784991 350.000000
64.804474 377.000000
64.823956 348.000000
64.843438 378.000000
64.862921 374.000000
64.882403 393.000000
64.901886 385.000000
64.921368 400.000000
64.940850 378.000000
64.960333 331.000000
64.979815 371.000000
64.999297 368.000000
65.018780 350.000000
65.038262 348.000000
65.057744 376.000000
65.077227 352.000000
65.096709 397.000000
65.116192 384.000000
65.135674 343.000000
65.155156 359.000000
65.174639 395.000000
65.194121 399.000000
65.213603 417.000000
65.233086 366.000000
65.252568 367.000000
65.272051 377.000000
65.291533 364.000000
65.311015 336.000000
65.330498 387.000000
65.349980 349.000000
65.369462 351.000000
65.388945 358.000000
65.408427 402.000000
65.427909 346.000000
65.447392 369.000000
65.466874 371.000000
65.486357 369.000000
65.505839 385.000000
65.525321 417.000000
65.544804 360.000000
65.564286 367.000000
65.583768 409.000000
65.603251 394.000000
65.622733 369.000000
65.642216 400.000000
65.661698 344.000000
65.681180 371.000000
65.700663 334.000000
65.720145 342.000000
65.739627 379.000000
65.759110 394.000000
65.778592 342.000000
65.798075 366.000000
65.817557 400.000000
65.837039 378.000000
65.856522 342.000000
65.876004 375.000000
65.895486 388.000000
65.914969 353.000000
65.934451 350.000000
65.953933 370.000000
65.973416 391.000000
65.992898 368.000000
66.012381 381.000000
66.031863 383.000000
66.051345 340.000000
66.070828 402.000000
66.090310 375.000000
66.109792 348.000000
66.129275 349.000000
66.148757 356.000000
66.168240 342.000000
66.187722 369.000000
66.207204 358.000000
66.226687 344.000000
66.246169 364.000000
66.265651 347.000000
66.285134 389.000000
66.304616 339.000000
66.324098 324.000000
66.343581 390.000000
66.363063 366.000000
66.382546 380.000000
66.402028 364.000000
66.421510 365.000000
66.440993 395.000000
66.460475 368.000000
66.479957 349.000000
66.499440 384.000000
66.518922 333.000000
66.538405 373.000000
66.557887 358.000000
66.577369 366.000000
66.596852 371.000000
66.616334 330.000000
66.635816 346.000000
66.655299 366.000000
66.674781 334.000000
66.694263 379.000000
66.713746 385.000000
66.733228 421.000000
66.752711 346.000000
66.772193 373.000000
66.791675 355.000000
66.811158 386.000000
66.830640 342.000000
66.850122 360.000000
66.869605 329.000000
66.889087 386.000000
66.908570 362.000000
66.928052 383.000000
66.947534 383.000000
66.967017 373.000000
66.986499 361.000000
67.005981 399.000000
67.025464 378.000000
67.044946 358.000000
67.064428 379.000000
67.083911 368.000000
67.103393 338.000000
67.122876 416.000000
67.142358 341.000000
67.161840 383.000000
67.181323 392.000000
67.200805 368.000000
67.220287 382.000000
67.239770 374.000000
67.259252 357.000000
67.278735 375.000000
67.298217 344.000000
67.317699 419.000000
67.337182 355.000000
67.356664 349.000000
67.376146 392.000000
67.395629 367.000000
67.415111 360.000000
67.434593 384.000000
67.454076 376.000000
67.473558 385.000000
67.493041 372.000000
67.512523 332.000000
67.532005 396.000000
67.551488 401.000000
67.570970 398.000000
67.590452 357.000000
67.609935 369.000000
67.629417 363.000000
67.648900 393.000000
67.668382 368.000000
67.687864 334.000000
67.707347 354.000000
67.726829 362.000000
67.746311 391.000000
67.765794 401.000000
67.785276 338.000000
67.804759 371.000000
67.824241 372.000000
67.843723 367.000000
67.863206 373.000000
67.882688 359.000000
67.902170 375.000000
67.921653 380.000000
67.941135 389.000000
67.960617 403.000000
67.980100 359.000000
67.999582 353.000000
68.019065 363.000000
68.038547 382.000000
68.058029 325.000000
68.077512 354.000000
68.096994 377.000000
68.116476 375.000000
68.135959 393.000000
68.155441 379.000000
68.174924 378.000000
68.194406 344.000000
68.213888 372.000000
68.233371 368.000000
68.252853 371.000000
68.272335 359.000000
68.291818 420.000000
68.311300 373.000000
68.330782 391.000000
68.350265 369.000000
68.369747 403.000000
68.389230 353.000000
68.408712 388.000000
68.428194 361.000000
68.447677 349.000000
68.467159 370.000000
68.486641 361.000000
68.506124 407.000000
68.525606 407.000000
68.545089 364.000000
68.564571 400.000000
68.584053 371.000000
68.603536 348.000000
68.623018 387.000000
68.642500 336.000000
68.661983 382.000000
68.681465 383.000000
68.700947 372.000000
68.720430 368.000000
68.739912 370.000000
68.759395 357.000000
68.778877 362.000000
68.798359 342.000000
68.817842 363.000000
68.837324 365.000000
68.856806 418.000000
68.876289 353.000000
68.895771 414.000000
68.915254 335.000000
68.934736 354.000000
68.954218 392.000000
68.973701 395.000000
68.993183 364.000000
69.012665 400.000000
69.032148 368.000000
69.051630 356.000000
69.071112 373.000000
69.090595 378.000000
69.110077 347.000000
69.129560 388.000000
69.149042 365.000000
69.168524 402.000000
69.188007 387.000000
69.207489 342.000000
69.226971 356.000000
69.246454 317.000000
69.265936 398.000000
69.285419 406.000000
69.304901 434.000000
69.324383 419.000000
69.343866 389.000000
69.363348 376.000000
69.382830 373.000000
69.402313 410.000000
69.421795 358.000000
69.441278 355.000000
69.460760 335.000000
69.480242 364.000000
69.499725 390.000000
69.519207 336.000000
69.538689 386.000000
69.558172 400.000000
69.577654 382.000000
69.597136 379.000000
69.616619 361.000000
69.636101 348.000000
69.655584 337.000000
69.675066 373.000000
69.694548 377.000000
69.714031 378.000000
69.733513 374.000000
69.752995 394.000000
69.772478 338.000000
69.791960 355.000000
69.811443 371.000000
69.830925 373.000000
69.850407 378.000000
69.869890 411.000000
69.889372 377.000000
69.908854 393.000000
69.928337 343.000000
69.947819 361.000000
69.967301 395.000000
69.986784 425.000000
70.006266 361.000000
70.025749 363.000000
