4.000000 609.000000
4.019482 612.000000
4.038965 620.000000
4.058447 599.000000
4.077929 603.000000
4.097412 600.000000
4.116894 603.000000
4.136377 549.000000
4.155859 625.000000
4.175341 569.000000
4.194824 604.000000
4.214306 582.000000
4.233788 530.000000
4.253271 552.000000
4.272753 516.000000
4.292236 530.000000
4.311718 505.000000
4.331200 520.000000
4.350683 524.000000
4.370165 540.000000
4.389647 523.000000
4.409130 521.000000
4.428612 523.000000
4.448094 495.000000
4.467577 484.000000
4.487059 504.000000
4.506542 492.000000
4.526024 473.000000
4.545506 447.000000
4.564989 468.000000
4.584471 447.000000
4.603953 484.000000
4.623436 444.000000
4.642918 489.000000
4.662401 456.000000
4.681883 445.000000
4.701365 460.000000
4.720848 434.000000
4.740330 455.000000
4.759812 437.000000
4.779295 427.000000
4.798777 469.000000
4.818259 456.000000
4.837742 453.000000
4.857224 425.000000
4.876707 410.000000
4.896189 449.000000
4.915671 388.000000
4.935154 420.000000
4.954636 408.000000
4.974118 442.000000
4.993601 433.000000
5.013083 409.000000
5.032566 413.000000
5.052048 413.000000
5.071530 422.000000
5.091013 410.000000
5.110495 413.000000
5.129977 392.000000
5.149460 378.000000
5.168942 420.000000
5.188425 389.000000
5.207907 359.000000
5.227389 384.000000
5.246872 389.000000
5.266354 371.000000
5.285836 384.000000
5.305319 399.000000
5.324801 403.000000
5.344283 370.000000
5.363766 405.000000
5.383248 396.000000
5.402731 353.000000
5.422213 385.000000
5.441695 405.000000
5.461178 407.000000
5.480660 373.000000
5.500142 407.000000
5.519625 374.000000
5.539107 395.000000
5.558590 364.000000
5.578072 375.000000
5.597554 385.000000
5.617037 359.000000
5.636519 383.000000
5.656001 372.000000
5.675484 387.000000
5.694966 329.000000
5.714448 364.000000
5.733931 372.000000
5.753413 402.000000
5.772896 399.000000
5.792378 369.000000
5.811860 369.000000
5.831343 342.000000
5.850825 375.000000
5.870307 389.000000
5.889790 356.000000
5.909272 359.000000
5.928755 377.000000
5.948237 368.000000
5.967719 359.000000
5.987202 346.000000
6.006684 346.000000
6.026166 360.000000
6.045649 353.000000
6.065131 354.000000
6.084613 333.000000
6.104096 362.000000
6.123578 385.000000
6.143061 333.000000
6.162543 355.000000
6.182025 351.000000
6.201508 370.000000
6.220990 347.000000
6.240472 353.000000
6.259955 339.000000
6.279437 366.000000
6.298920 363.000000
6.318402 330.000000
6.337884 359.000000
6.357367 360.000000
6.376849 334.000000
6.396331 324.000000
6.415814 363.000000
6.435296 332.000000
6.454778 341.000000
6.474261 369.000000
6.493743 341.000000
6.513226 342.000000
6.532708 348.000000
6.552190 326.000000
6.571673 335.000000
6.591155 345.000000
6.610637 346.000000
6.630120 330.000000
6.649602 386.000000
6.669085 335.000000
6.688567 308.000000
6.708049 336.000000
6.727532 336.000000
6.747014 363.000000
6.766496 309.000000
6.785979 335.000000
6.805461 328.000000
6.824944 345.000000
6.844426 314.000000
6.863908 321.000000
6.883391 328.000000
6.902873 351.000000
6.922355 346.000000
6.941838 317.000000
6.961320 325.000000
6.980802 341.000000
7.000285 343.000000
7.019767 313.000000
7.039250 327.000000
7.058732 358.000000
7.078214 330.000000
7.097697 337.000000
7.117179 313.000000
7.136661 333.000000
7.156144 370.000000
7.175626 336.000000
7.195109 338.000000
7.214591 311.000000
7.234073 341.000000
7.253556 283.000000
7.273038 304.000000
7.292520 326.000000
7.312003 326.000000
7.331485 312.000000
7.350967 323.000000
7.370450 333.000000
7.389932 325.000000
7.409415 317.000000
7.428897 349.000000
7.448379 293.000000
7.467862 331.000000
7.487344 365.000000
7.506826 294.000000
7.526309 309.000000
7.545791 307.000000
7.565274 326.000000
7.584756 296.000000
7.604238 335.000000
7.623721 279.000000
7.643203 320.000000
7.662685 320.000000
7.682168 335.000000
7.701650 366.000000
7.721132 306.000000
7.740615 317.000000
7.760097 307.000000
7.779580 313.000000
7.799062 277.000000
7.818544 339.000000
7.838027 338.000000
7.857509 285.000000
7.876991 299.000000
7.896474 283.000000
7.915956 309.000000
7.935439 326.000000
7.954921 301.000000
7.974403 316.000000
7.993886 322.000000
8.013368 300.000000
8.032850 314.000000
8.052333 302.000000
8.071815 342.000000
8.091297 281.000000
8.110780 318.000000
8.130262 290.000000
8.149745 353.000000
8.169227 314.000000
8.188709 318.000000
8.208192 344.000000
8.227674 323.000000
8.247156 315.000000
8.266639 290.000000
8.286121 296.000000
8.305604 301.000000
8.325086 286.000000
8.344568 329.000000
8.364051 361.000000
8.383533 330.000000
8.403015 309.000000
8.422498 329.000000
8.441980 308.000000
8.461463 306.000000
8.480945 294.000000
8.500427 283.000000
8.519910 327.000000
8.539392 312.000000
8.558874 332.000000
8.578357 288.000000
8.597839 316.000000
8.617321 309.000000
8.636804 317.000000
8.656286 298.000000
8.675769 320.000000
8.695251 308.000000
8.714733 298.000000
8.734216 313.000000
8.753698 336.000000
8.773180 286.000000
8.792663 306.000000
8.812145 295.000000
8.831628 313.000000
8.851110 306.000000
8.870592 281.000000
8.890075 292.000000
8.909557 309.000000
8.929039 303.000000
8.948522 343.000000
8.968004 310.000000
8.987486 303.000000
9.006969 297.000000
9.026451 328.000000
9.045934 297.000000
9.065416 331.000000
9.084898 334.000000
9.104381 287.000000
9.123863 322.000000
9.143345 321.000000
9.162828 310.000000
9.182310 313.000000
9.201793 324.000000
9.221275 292.000000
9.240757 302.000000
9.260240 294.000000
9.279722 355.000000
9.299204 278.000000
9.318687 346.000000
9.338169 289.000000
9.357651 334.000000
9.377134 287.000000
9.396616 319.000000
9.416099 306.000000
9.435581 291.000000
9.455063 311.000000
9.474546 304.000000
9.494028 308.000000
9.513510 333.000000
9.532993 314.000000
9.552475 285.000000
9.571958 320.000000
9.591440 297.000000
9.610922 328.000000
9.630405 319.000000
9.649887 285.000000
9.669369 282.000000
9.688852 327.000000
9.708334 297.000000
9.727816 300.000000
9.747299 322.000000
9.766781 304.000000
9.786264 294.000000
9.805746 318.000000
9.825228 307.000000
9.844711 285.000000
9.864193 274.000000
9.883675 285.000000
9.903158 307.000000
9.922640 333.000000
9.942123 297.000000
9.961605 319.000000
9.981087 306.000000
10.000570 298.000000
10.020052 313.000000
10.039534 321.000000
10.059017 305.000000
10.078499 337.000000
10.097982 302.000000
10.117464 351.000000
10.136946 280.000000
10.156429 286.000000
10.175911 291.000000
10.195393 292.000000
10.214876 295.000000
10.234358 311.000000
10.253840 328.000000
10.273323 327.000000
10.292805 294.000000
10.312288 318.000000
10.331770 312.000000
10.351252 308.000000
10.370735 279.000000
10.390217 305.000000
10.409699 312.000000
10.429182 315.000000
10.448664 287.000000
10.468147 316.000000
10.487629 304.000000
10.507111 298.000000
10.526594 292.000000
10.546076 310.000000
10.565558 290.000000
10.585041 304.000000
10.604523 318.000000
10.624005 291.000000
10.643488 279.000000
10.662970 292.000000
10.682453 294.000000
10.701935 296.000000
10.721417 297.000000
10.740900 279.000000
10.760382 329.000000
10.779864 295.000000
10.799347 309.000000
10.818829 309.000000
10.838312 265.000000
10.857794 317.000000
10.877276 292.000000
10.896759 311.000000
10.916241 326.000000
10.935723 340.000000
10.955206 312.000000
10.974688 301.000000
10.994170 339.000000
11.013653 313.000000
11.033135 302.000000
11.052618 277.000000
11.072100 279.000000
11.091582 291.000000
11.111065 281.000000
11.130547 283.000000
11.150029 259.000000
11.169512 316.000000
11.188994 298.000000
11.208477 317.000000
11.227959 280.000000
11.247441 349.000000
11.266924 316.000000
11.286406 313.000000
11.305888 306.000000
11.325371 334.000000
11.344853 357.000000
11.364335 334.000000
11.383818 276.000000
11.403300 300.000000
11.422783 296.000000
11.442265 313.000000
11.461747 323.000000
11.481230 294.000000
11.500712 323.000000
11.520194 299.000000
11.539677 314.000000
11.559159 313.000000
11.578642 312.000000
11.598124 305.000000
11.617606 344.000000
11.637089 337.000000
11.656571 317.000000
11.676053 324.000000
11.695536 286.000000
11.715018 295.000000
11.734500 310.000000
11.753983 278.000000
11.773465 283.000000
11.792948 307.000000
11.812430 310.000000
11.831912 291.000000
11.851395 303.000000
11.870877 304.000000
11.890359 320.000000
11.909842 317.000000
11.929324 293.000000
11.948807 285.000000
11.968289 313.000000
11.987771 255.000000
12.007254 311.000000
12.026736 289.000000
12.046218 302.000000
12.065701 331.000000
12.085183 297.000000
12.104666 289.000000
12.124148 311.000000
12.143630 305.000000
12.163113 296.000000
12.182595 326.000000
12.202077 298.000000
12.221560 303.000000
12.241042 298.000000
12.260524 288.000000
12.280007 306.000000
12.299489 285.000000
12.318972 342.000000
12.338454 290.000000
12.357936 325.000000
12.377419 281.000000
12.396901 291.000000
12.416383 296.000000
12.435866 306.000000
12.455348 328.000000
12.474831 297.000000
12.494313 297.000000
12.513795 322.000000
12.533278 307.000000
12.552760 310.000000
12.572242 311.000000
12.591725 323.000000
12.611207 294.000000
12.630689 308.000000
12.650172 314.000000
12.669654 307.000000
12.689137 338.000000
12.708619 289.000000
12.728101 311.000000
12.747584 314.000000
12.767066 266.000000
12.786548 294.000000
12.806031 295.000000
12.825513 292.000000
12.844996 320.000000
12.864478 306.000000
12.883960 288.000000
12.903443 311.000000
12.922925 311.000000
12.942407 314.000000
12.961890 310.000000
12.981372 303.000000
13.000854 286.000000
13.020337 332.000000
13.039819 323.000000
13.059302 285.000000
13.078784 268.000000
13.098266 285.000000
13.117749 277.000000
13.137231 326.000000
13.156713 310.000000
13.176196 297.000000
13.195678 315.000000
13.215161 305.000000
13.234643 315.000000
13.254125 324.000000
13.273608 321.000000
13.293090 319.000000
13.312572 316.000000
13.332055 331.000000
13.351537 295.000000
13.371019 298.000000
13.390502 291.000000
13.409984 279.000000
13.429467 318.000000
13.448949 275.000000
13.468431 303.000000
13.487914 292.000000
13.507396 313.000000
13.526878 280.000000
13.546361 318.000000
13.565843 301.000000
13.585326 299.000000
13.604808 304.000000
13.624290 299.000000
13.643773 346.000000
13.663255 291.000000
13.682737 315.000000
13.702220 317.000000
13.721702 309.000000
13.741185 270.000000
13.760667 313.000000
13.780149 299.000000
13.799632 304.000000
13.819114 299.000000
13.838596 326.000000
13.858079 302.000000
13.877561 325.000000
13.897043 309.000000
13.916526 296.000000
13.936008 276.000000
13.955491 319.000000
13.974973 293.000000
13.994455 306.000000
14.013938 298.000000
14.033420 320.000000
14.052902 341.000000
14.072385 303.000000
14.091867 322.000000
14.111350 296.000000
14.130832 335.000000
14.150314 311.000000
14.169797 313.000000
14.189279 300.000000
14.208761 315.000000
14.228244 266.000000
14.247726 333.000000
14.267208 283.000000
14.286691 297.000000
14.306173 301.000000
14.325656 285.000000
14.345138 326.000000
14.364620 294.000000
14.384103 299.000000
14.403585 276.000000
14.423067 294.000000
14.442550 298.000000
14.462032 319.000000
14.481515 270.000000
14.500997 286.000000
14.520479 316.000000
14.539962 277.000000
14.559444 298.000000
14.578926 331.000000
14.598409 287.000000
14.617891 313.000000
14.637373 287.000000
14.656856 317.000000
14.676338 299.000000
14.695821 295.000000
14.715303 319.000000
14.734785 289.000000
14.754268 324.000000
14.773750 304.000000
14.793232 296.000000
14.812715 327.000000
14.832197 312.000000
14.851680 303.000000
14.871162 319.000000
14.890644 305.000000
14.910127 307.000000
14.929609 326.000000
14.949091 270.000000
14.968574 303.000000
14.988056 302.000000
15.007538 298.000000
15.027021 283.000000
15.046503 292.000000
15.065986 298.000000
15.085468 318.000000
15.104950 287.000000
15.124433 313.000000
15.143915 319.000000
15.163397 271.000000
15.182880 279.000000
15.202362 319.000000
15.221845 295.000000
15.241327 312.000000
15.260809 295.000000
15.280292 328.000000
15.299774 284.000000
15.319256 309.000000
15.338739 281.000000
15.358221 301.000000
15.377704 278.000000
15.397186 326.000000
15.416668 290.000000
15.436151 269.000000
15.455633 289.000000
15.475115 291.000000
15.494598 300.000000
15.514080 312.000000
15.533562 268.000000
15.553045 276.000000
15.572527 284.000000
15.592010 296.000000
15.611492 273.000000
15.630974 326.000000
15.650457 299.000000
15.669939 286.000000
15.689421 316.000000
15.708904 307.000000
15.728386 285.000000
15.747869 283.000000
15.767351 314.000000
15.786833 292.000000
15.806316 275.000000
15.825798 292.000000
15.845280 289.000000
15.864763 295.000000
15.884245 319.000000
15.903727 314.000000
15.923210 295.000000
15.942692 311.000000
15.962175 280.000000
15.981657 326.000000
16.001139 298.000000
16.020622 316.000000
16.040104 312.000000
16.059586 282.000000
16.079069 279.000000
16.098551 278.000000
16.118034 305.000000
16.137516 299.000000
16.156998 310.000000
16.176481 291.000000
16.195963 294.000000
16.215445 319.000000
16.234928 295.000000
16.254410 305.000000
16.273892 296.000000
16.293375 309.000000
16.312857 270.000000
16.332340 337.000000
16.351822 297.000000
16.371304 307.000000
16.390787 260.000000
16.410269 288.000000
16.429751 302.000000
16.449234 343.000000
16.468716 306.000000
16.488199 283.000000
16.507681 285.000000
16.527163 289.000000
16.546646 312.000000
16.566128 299.000000
16.585610 296.000000
16.605093 307.000000
16.624575 313.000000
16.644057 339.000000
16.663540 321.000000
16.683022 311.000000
16.702505 338.000000
16.721987 305.000000
16.741469 308.000000
16.760952 352.000000
16.780434 283.000000
16.799916 275.000000
16.819399 318.000000
16.838881 304.000000
16.858364 312.000000
16.877846 338.000000
16.897328 290.000000
16.916811 295.000000
16.936293 288.000000
16.955775 304.000000
16.975258 308.000000
16.994740 345.000000
17.014222 293.000000
17.033705 319.000000
17.053187 331.000000
17.072670 299.000000
17.092152 297.000000
17.111634 289.000000
17.131117 309.000000
17.150599 306.000000
17.170081 312.000000
17.189564 300.000000
17.209046 286.000000
17.228529 305.000000
17.248011 309.000000
17.267493 309.000000
17.286976 259.000000
17.306458 296.000000
17.325940 272.000000
17.345423 295.000000
17.364905 306.000000
17.384388 310.000000
17.403870 316.000000
17.423352 325.000000
17.442835 322.000000
17.462317 280.000000
17.481799 286.000000
17.501282 294.000000
17.520764 293.000000
17.540246 311.000000
17.559729 307.000000
17.579211 280.000000
17.598694 277.000000
17.618176 294.000000
17.637658 281.000000
17.657141 317.000000
17.676623 285.000000
17.696105 295.000000
17.715588 305.000000
17.735070 295.000000
17.754553 293.000000
17.774035 296.000000
17.793517 303.000000
17.813000 309.000000
17.832482 305.000000
17.851964 297.000000
17.871447 289.000000
17.890929 298.000000
17.910411 314.000000
17.929894 306.000000
17.949376 259.000000
17.968859 288.000000
17.988341 318.000000
18.007823 303.000000
18.027306 288.000000
18.046788 288.000000
18.066270 306.000000
18.085753 274.000000
18.105235 314.000000
18.124718 260.000000
18.144200 282.000000
18.163682 305.000000
18.183165 310.000000
18.202647 303.000000
18.222129 305.000000
18.241612 301.000000
18.261094 311.000000
18.280576 306.000000
18.300059 296.000000
18.319541 293.000000
18.339024 303.000000
18.358506 291.000000
18.377988 277.000000
18.397471 281.000000
18.416953 312.000000
18.436435 300.000000
18.455918 277.000000
18.475400 265.000000
18.494883 321.000000
18.514365 294.000000
18.533847 264.000000
18.553330 292.000000
18.572812 315.000000
18.592294 278.000000
18.611777 304.000000
18.631259 322.000000
18.650741 313.000000
18.670224 255.000000
18.689706 276.000000
18.709189 286.000000
18.728671 344.000000
18.748153 322.000000
18.767636 310.000000
18.787118 306.000000
18.806600 281.000000
18.826083 264.000000
18.845565 309.000000
18.865048 320.000000
18.884530 267.000000
18.904012 287.000000
18.923495 279.000000
18.942977 321.000000
18.962459 323.000000
18.981942 334.000000
19.001424 284.000000
19.020907 331.000000
19.040389 314.000000
19.059871 293.000000
19.079354 303.000000
19.098836 301.000000
19.118318 276.000000
19.137801 269.000000
19.157283 274.000000
19.176765 311.000000
19.196248 282.000000
19.215730 311.000000
19.235213 309.000000
19.254695 274.000000
19.274177 289.000000
19.293660 304.000000
19.313142 283.000000
19.332624 347.000000
19.352107 304.000000
19.371589 297.000000
19.391072 303.000000
19.410554 288.000000
19.430036 314.000000
19.449519 326.000000
19.469001 280.000000
19.488483 278.000000
19.507966 313.000000
19.527448 296.000000
19.546930 268.000000
19.566413 292.000000
19.585895 313.000000
19.605378 301.000000
19.624860 329.000000
19.644342 321.000000
19.663825 323.000000
19.683307 298.000000
19.702789 282.000000
19.722272 283.000000
19.741754 308.000000
19.761237 309.000000
19.780719 284.000000
19.800201 302.000000
19.819684 276.000000
19.839166 280.000000
19.858648 319.000000
19.878131 308.000000
19.897613 265.000000
19.917095 298.000000
19.936578 287.000000
19.956060 324.000000
19.975543 291.000000
19.995025 299.000000
20.014507 306.000000
20.033990 286.000000
20.053472 312.000000
20.072954 302.000000
20.092437 315.000000
20.111919 300.000000
20.131402 307.000000
20.150884 299.000000
20.170366 303.000000
20.189849 290.000000
20.209331 316.000000
20.228813 300.000000
20.248296 317.000000
20.267778 304.000000
20.287260 310.000000
20.306743 342.000000
20.326225 287.000000
20.345708 323.000000
20.365190 321.000000
20.384672 277.000000
20.404155 297.000000
20.423637 287.000000
20.443119 311.000000
20.462602 310.000000
20.482084 330.000000
20.501567 301.000000
20.521049 292.000000
20.540531 311.000000
20.560014 307.000000
20.579496 295.000000
20.598978 324.000000
20.618461 295.000000
20.637943 281.000000
20.657426 288.000000
20.676908 312.000000
20.696390 349.000000
20.715873 288.000000
20.735355 288.000000
20.754837 290.000000
20.774320 286.000000
20.793802 313.000000
20.813284 285.000000
20.832767 318.000000
20.852249 314.000000
20.871732 282.000000
20.891214 301.000000
20.910696 293.000000
20.930179 298.000000
20.949661 328.000000
20.969143 304.000000
20.988626 321.000000
21.008108 326.000000
21.027591 307.000000
21.047073 290.000000
21.066555 297.000000
21.086038 321.000000
21.105520 289.000000
21.125002 296.000000
21.144485 298.000000
21.163967 258.000000
21.183449 294.000000
21.202932 287.000000
21.222414 300.000000
21.241897 313.000000
21.261379 298.000000
21.280861 279.000000
21.300344 314.000000
21.319826 312.000000
21.339308 311.000000
21.358791 301.000000
21.378273 327.000000
21.397756 302.000000
21.417238 280.000000
21.436720 307.000000
21.456203 293.000000
21.475685 294.000000
21.495167 308.000000
21.514650 293.000000
21.534132 273.000000
21.553614 302.000000
21.573097 311.000000
21.592579 306.000000
21.612062 305.000000
21.631544 306.000000
21.651026 331.000000
21.670509 314.000000
21.689991 308.000000
21.709473 308.000000
21.728956 311.000000
21.748438 305.000000
21.767921 294.000000
21.787403 314.000000
21.806885 303.000000
21.826368 292.000000
21.845850 302.000000
21.865332 299.000000
21.884815 295.000000
21.904297 303.000000
21.923779 258.000000
21.943262 321.000000
21.962744 302.000000
21.982227 300.000000
22.001709 311.000000
22.021191 331.000000
22.040674 302.000000
22.060156 300.000000
22.079638 314.000000
22.099121 314.000000
22.118603 332.000000
22.138086 328.000000
22.157568 296.000000
22.177050 296.000000
22.196533 293.000000
22.216015 303.000000
22.235497 299.000000
22.254980 273.000000
22.274462 316.000000
22.293945 317.000000
22.313427 281.000000
22.332909 281.000000
22.352392 311.000000
22.371874 307.000000
22.391356 296.000000
22.410839 279.000000
22.430321 346.000000
22.449803 314.000000
22.469286 320.000000
22.488768 288.000000
22.508251 308.000000
22.527733 309.000000
22.547215 279.000000
22.566698 275.000000
22.586180 303.000000
22.605662 303.000000
22.625145 294.000000
22.644627 302.000000
22.664110 323.000000
22.683592 280.000000
22.703074 290.000000
22.722557 269.000000
22.742039 306.000000
22.761521 328.000000
22.781004 273.000000
22.800486 320.000000
22.819968 292.000000
22.839451 306.000000
22.858933 319.000000
22.878416 327.000000
22.897898 299.000000
22.917380 292.000000
22.936863 302.000000
22.956345 324.000000
22.975827 304.000000
22.995310 276.000000
23.014792 313.000000
23.034275 299.000000
23.053757 319.000000
23.073239 340.000000
23.092722 300.000000
23.112204 320.000000
23.131686 314.000000
23.151169 302.000000
23.170651 308.000000
23.190133 321.000000
23.209616 297.000000
23.229098 289.000000
23.248581 311.000000
23.268063 331.000000
23.287545 287.000000
23.307028 302.000000
23.326510 288.000000
23.345992 318.000000
23.365475 311.000000
23.384957 291.000000
23.404440 294.000000
23.423922 314.000000
23.443404 290.000000
23.462887 297.000000
23.482369 305.000000
23.501851 284.000000
23.521334 304.000000
23.540816 315.000000
23.560298 300.000000
23.579781 292.000000
23.599263 301.000000
23.618746 344.000000
23.638228 329.000000
23.657710 291.000000
23.677193 286.000000
23.696675 303.000000
23.716157 298.000000
23.735640 282.000000
23.755122 307.000000
23.774605 310.000000
23.794087 327.000000
23.813569 292.000000
23.833052 289.000000
23.852534 311.000000
23.872016 313.000000
23.891499 287.000000
23.910981 289.000000
23.930463 302.000000
23.949946 318.000000
23.969428 271.000000
23.988911 321.000000
24.008393 280.000000
24.027875 306.000000
24.047358 308.000000
24.066840 333.000000
24.086322 307.000000
24.105805 323.000000
24.125287 286.000000
24.144770 324.000000
24.164252 299.000000
24.183734 328.000000
24.203217 314.000000
24.222699 290.000000
24.242181 285.000000
24.261664 298.000000
24.281146 327.000000
24.300629 332.000000
24.320111 315.000000
24.339593 336.000000
24.359076 316.000000
24.378558 336.000000
24.398040 299.000000
24.417523 325.000000
24.437005 306.000000
24.456487 305.000000
24.475970 329.000000
24.495452 301.000000
24.514935 297.000000
24.534417 294.000000
24.553899 329.000000
24.573382 314.000000
24.592864 312.000000
24.612346 301.000000
24.631829 286.000000
24.651311 269.000000
24.670794 341.000000
24.690276 297.000000
24.709758 281.000000
24.729241 297.000000
24.748723 311.000000
24.768205 313.000000
24.787688 283.000000
24.807170 327.000000
24.826652 315.000000
24.846135 293.000000
24.865617 323.000000
24.885100 320.000000
24.904582 329.000000
24.924064 295.000000
24.943547 317.000000
24.963029 276.000000
24.982511 294.000000
25.001994 295.000000
25.021476 298.000000
25.040959 317.000000
25.060441 303.000000
25.079923 291.000000
25.099406 279.000000
25.118888 285.000000
25.138370 264.000000
25.157853 311.000000
25.177335 307.000000
25.196817 327.000000
25.216300 285.000000
25.235782 318.000000
25.255265 339.000000
25.274747 305.000000
25.294229 286.000000
25.313712 280.000000
25.333194 286.000000
25.352676 323.000000
25.372159 295.000000
25.391641 309.000000
25.411124 306.000000
25.430606 288.000000
25.450088 315.000000
25.469571 307.000000
25.489053 268.000000
25.508535 334.000000
25.528018 325.000000
25.547500 324.000000
25.566982 297.000000
25.586465 305.000000
25.605947 306.000000
25.625430 276.000000
25.644912 289.000000
25.664394 303.000000
25.683877 307.000000
25.703359 280.000000
25.722841 301.000000
25.742324 274.000000
25.761806 293.000000
25.781289 294.000000
25.800771 308.000000
25.820253 287.000000
25.839736 286.000000
25.859218 320.000000
25.878700 305.000000
25.898183 314.000000
25.917665 316.000000
25.937148 295.000000
25.956630 319.000000
25.976112 341.000000
25.995595 314.000000
26.015077 280.000000
26.034559 284.000000
26.054042 335.000000
26.073524 268.000000
26.093006 352.000000
26.112489 301.000000
26.131971 306.000000
26.151454 295.000000
26.170936 310.000000
26.190418 296.000000
26.209901 288.000000
26.229383 306.000000
26.248865 338.000000
26.268348 319.000000
26.287830 281.000000
26.307313 332.000000
26.326795 317.000000
26.346277 323.000000
26.365760 310.000000
26.385242 279.000000
26.404724 273.000000
26.424207 286.000000
26.443689 304.000000
26.463171 280.000000
26.482654 325.000000
26.502136 312.000000
26.521619 299.000000
26.541101 302.000000
26.560583 293.000000
26.580066 339.000000
26.599548 313.000000
26.619030 315.000000
26.638513 295.000000
26.657995 286.000000
26.677478 338.000000
26.696960 300.000000
26.716442 307.000000
26.735925 303.000000
26.755407 310.000000
26.774889 339.000000
26.794372 304.000000
26.813854 339.000000
26.833336 308.000000
26.852819 293.000000
26.872301 310.000000
26.891784 276.000000
26.911266 327.000000
26.930748 292.000000
26.950231 307.000000
26.969713 329.000000
26.989195 306.000000
27.008678 293.000000
27.028160 290.000000
27.047643 322.000000
27.067125 290.000000
27.086607 315.000000
27.106090 314.000000
27.125572 315.000000
27.145054 302.000000
27.164537 313.000000
27.184019 334.000000
27.203501 319.000000
27.222984 333.000000
27.242466 340.000000
27.261949 327.000000
27.281431 330.000000
27.300913 355.000000
27.320396 280.000000
27.339878 345.000000
27.359360 327.000000
27.378843 297.000000
27.398325 277.000000
27.417808 318.000000
27.437290 305.000000
27.456772 312.000000
27.476255 299.000000
27.495737 313.000000
27.515219 309.000000
27.534702 287.000000
27.554184 302.000000
27.573667 322.000000
27.593149 302.000000
27.612631 296.000000
27.632114 304.000000
27.651596 294.000000
27.671078 308.000000
27.690561 296.000000
27.710043 351.000000
27.729525 307.000000
27.749008 306.000000
27.768490 315.000000
27.787973 306.000000
27.807455 321.000000
27.826937 290.000000
27.846420 278.000000
27.865902 353.000000
27.885384 333.000000
27.904867 314.000000
27.924349 260.000000
27.943832 328.000000
27.963314 325.000000
27.982796 354.000000
28.002279 282.000000
28.021761 288.000000
28.041243 305.000000
28.060726 323.000000
28.080208 341.000000
28.099690 328.000000
28.119173 315.000000
28.138655 322.000000
28.158138 295.000000
28.177620 325.000000
28.197102 321.000000
28.216585 299.000000
28.236067 295.000000
28.255549 297.000000
28.275032 330.000000
28.294514 325.000000
28.313997 298.000000
28.333479 295.000000
28.352961 333.000000
28.372444 333.000000
28.391926 327.000000
28.411408 354.000000
28.430891 326.000000
28.450373 430.000000
28.469855 523.000000
28.489338 769.000000
28.508820 1011.000000
28.528303 902.000000
28.547785 705.000000
28.567267 644.000000
28.586750 682.000000
28.606232 543.000000
28.625714 418.000000
28.645197 334.000000
28.664679 357.000000
28.684162 288.000000
28.703644 348.000000
28.723126 322.000000
28.742609 338.000000
28.762091 334.000000
28.781573 291.000000
28.801056 310.000000
28.820538 319.000000
28.840020 315.000000
28.859503 281.000000
28.878985 323.000000
28.898468 324.000000
28.917950 312.000000
28.937432 314.000000
28.956915 291.000000
28.976397 318.000000
28.995879 326.000000
29.015362 310.000000
29.034844 294.000000
29.054327 305.000000
29.073809 297.000000
29.093291 313.000000
29.112774 311.000000
29.132256 349.000000
29.151738 328.000000
29.171221 310.000000
29.190703 343.000000
29.210185 316.000000
29.229668 340.000000
29.249150 320.000000
29.268633 288.000000
29.288115 336.000000
29.307597 307.000000
29.327080 305.000000
29.346562 308.000000
29.366044 306.000000
29.385527 319.000000
29.405009 304.000000
29.424492 322.000000
29.443974 308.000000
29.463456 336.000000
29.482939 312.000000
29.502421 322.000000
29.521903 316.000000
29.541386 325.000000
29.560868 309.000000
29.580351 326.000000
29.599833 341.000000
29.619315 320.000000
29.638798 309.000000
29.658280 307.000000
29.677762 303.000000
29.697245 308.000000
29.716727 315.000000
29.736209 310.000000
29.755692 309.000000
29.775174 340.000000
29.794657 351.000000
29.814139 306.000000
29.833621 295.000000
29.853104 315.000000
29.872586 305.000000
29.892068 333.000000
29.911551 334.000000
29.931033 299.000000
29.950516 313.000000
29.969998 309.000000
29.989480 314.000000
30.008963 323.000000
30.028445 307.000000
30.047927 325.000000
30.067410 309.000000
30.086892 338.000000
30.106374 325.000000
30.125857 305.000000
30.145339 293.000000
30.164822 302.000000
30.184304 311.000000
30.203786 310.000000
30.223269 309.000000
30.242751 308.000000
30.262233 315.000000
30.281716 323.000000
30.301198 327.000000
30.320681 318.000000
30.340163 313.000000
30.359645 330.000000
30.379128 313.000000
30.398610 334.000000
30.418092 306.000000
30.437575 336.000000
30.457057 321.000000
30.476539 312.000000
30.496022 298.000000
30.515504 296.000000
30.534987 303.000000
30.554469 329.000000
30.573951 338.000000
30.593434 316.000000
30.612916 285.000000
30.632398 304.000000
30.651881 312.000000
30.671363 302.000000
30.690846 302.000000
30.710328 340.000000
30.729810 335.000000
30.749293 309.000000
30.768775 322.000000
30.788257 344.000000
30.807740 329.000000
30.827222 310.000000
30.846704 327.000000
30.866187 305.000000
30.885669 366.000000
30.905152 328.000000
30.924634 339.000000
30.944116 326.000000
30.963599 316.000000
30.983081 332.000000
31.002563 324.000000
31.022046 331.000000
31.041528 318.000000
31.061011 304.000000
31.080493 285.000000
31.099975 311.000000
31.119458 322.000000
31.138940 287.000000
31.158422 333.000000
31.177905 302.000000
31.197387 294.000000
31.216870 312.000000
31.236352 300.000000
31.255834 312.000000
31.275317 316.000000
31.294799 309.000000
31.314281 345.000000
31.333764 297.000000
31.353246 318.000000
31.372728 304.000000
31.392211 364.000000
31.411693 325.000000
31.431176 300.000000
31.450658 313.000000
31.470140 301.000000
31.489623 338.000000
31.509105 322.000000
31.528587 315.000000
31.548070 329.000000
31.567552 333.000000
31.587035 309.000000
31.606517 338.000000
31.625999 333.000000
31.645482 292.000000
31.664964 332.000000
31.684446 340.000000
31.703929 314.000000
31.723411 310.000000
31.742893 330.000000
31.762376 306.000000
31.781858 282.000000
31.801341 299.000000
31.820823 300.000000
31.840305 316.000000
31.859788 301.000000
31.879270 335.000000
31.898752 341.000000
31.918235 335.000000
31.937717 324.000000
31.957200 280.000000
31.976682 308.000000
31.996164 325.000000
32.015647 313.000000
32.035129 346.000000
32.054611 305.000000
32.074094 318.000000
32.093576 324.000000
32.113058 310.000000
32.132541 302.000000
32.152023 324.000000
32.171506 351.000000
32.190988 294.000000
32.210470 339.000000
32.229953 344.000000
32.249435 309.000000
32.268917 311.000000
32.288400 320.000000
32.307882 303.000000
32.327365 308.000000
32.346847 340.000000
32.366329 305.000000
32.385812 312.000000
32.405294 355.000000
32.424776 283.000000
32.444259 312.000000
32.463741 315.000000
32.483223 329.000000
32.502706 335.000000
32.522188 304.000000
32.541671 313.000000
32.561153 323.000000
32.580635 322.000000
32.600118 324.000000
32.619600 335.000000
32.639082 313.000000
32.658565 347.000000
32.678047 341.000000
32.697530 278.000000
32.717012 357.000000
32.736494 324.000000
32.755977 333.000000
32.775459 308.000000
32.794941 318.000000
32.814424 343.000000
32.833906 324.000000
32.853389 368.000000
32.872871 376.000000
32.892353 361.000000
32.911836 347.000000
32.931318 365.000000
32.950800 364.000000
32.970283 414.000000
32.989765 683.000000
33.009247 998.000000
33.028730 1919.000000
33.048212 2188.000000
33.067695 1188.000000
33.087177 829.000000
33.106659 925.000000
33.126142 1302.000000
33.145624 896.000000
33.165106 511.000000
33.184589 383.000000
33.204071 411.000000
33.223554 350.000000
33.243036 338.000000
33.262518 320.000000
33.282001 335.000000
33.301483 321.000000
33.320965 338.000000
33.340448 301.000000
33.359930 314.000000
33.379412 370.000000
33.398895 296.000000
33.418377 329.000000
33.437860 364.000000
33.457342 314.000000
33.476824 339.000000
33.496307 319.000000
33.515789 336.000000
33.535271 341.000000
33.554754 362.000000
33.574236 288.000000
33.593719 345.000000
33.613201 290.000000
33.632683 307.000000
33.652166 305.000000
33.671648 302.000000
33.691130 314.000000
33.710613 333.000000
33.730095 283.000000
33.749577 299.000000
33.769060 292.000000
33.788542 324.000000
33.808025 327.000000
33.827507 298.000000
33.846989 337.000000
33.866472 292.000000
33.885954 320.000000
33.905436 333.000000
33.924919 331.000000
33.944401 329.000000
33.963884 347.000000
33.983366 327.000000
34.002848 323.000000
34.022331 323.000000
34.041813 311.000000
34.061295 287.000000
34.080778 302.000000
34.100260 307.000000
34.119742 332.000000
34.139225 312.000000
34.158707 309.000000
34.178190 299.000000
34.197672 346.000000
34.217154 294.000000
34.236637 332.000000
34.256119 314.000000
34.275601 285.000000
34.295084 330.000000
34.314566 319.000000
34.334049 331.000000
34.353531 284.000000
34.373013 290.000000
34.392496 326.000000
34.411978 313.000000
34.431460 297.000000
34.450943 318.000000
34.470425 314.000000
34.489908 325.000000
34.509390 328.000000
34.528872 351.000000
34.548355 348.000000
34.567837 296.000000
34.587319 336.000000
34.606802 335.000000
34.626284 298.000000
34.645766 313.000000
34.665249 323.000000
34.684731 292.000000
34.704214 339.000000
34.723696 299.000000
34.743178 352.000000
34.762661 326.000000
34.782143 369.000000
34.801625 352.000000
34.821108 358.000000
34.840590 319.000000
34.860073 288.000000
34.879555 297.000000
34.899037 349.000000
34.918520 339.000000
34.938002 317.000000
34.957484 332.000000
34.976967 343.000000
34.996449 296.000000
35.015931 325.000000
35.035414 327.000000
35.054896 352.000000
35.074379 317.000000
35.093861 347.000000
35.113343 309.000000
35.132826 285.000000
35.152308 337.000000
35.171790 308.000000
35.191273 333.000000
35.210755 328.000000
35.230238 340.000000
35.249720 333.000000
35.269202 295.000000
35.288685 336.000000
35.308167 298.000000
35.327649 332.000000
35.347132 339.000000
35.366614 332.000000
35.386096 328.000000
35.405579 324.000000
35.425061 302.000000
35.444544 342.000000
35.464026 317.000000
35.483508 349.000000
35.502991 361.000000
35.522473 331.000000
35.541955 299.000000
35.561438 317.000000
35.580920 296.000000
35.600403 328.000000
35.619885 362.000000
35.639367 327.000000
35.658850 303.000000
35.678332 337.000000
35.697814 334.000000
35.717297 343.000000
35.736779 331.000000
35.756261 345.000000
35.775744 314.000000
35.795226 330.000000
35.814709 336.000000
35.834191 323.000000
35.853673 296.000000
35.873156 338.000000
35.892638 306.000000
35.912120 307.000000
35.931603 305.000000
35.951085 321.000000
35.970568 304.000000
35.990050 307.000000
36.009532 313.000000
36.029015 298.000000
36.048497 318.000000
36.067979 358.000000
36.087462 341.000000
36.106944 332.000000
36.126426 316.000000
36.145909 340.000000
36.165391 355.000000
36.184874 329.000000
36.204356 363.000000
36.223838 349.000000
36.243321 316.000000
36.262803 332.000000
36.282285 321.000000
36.301768 326.000000
36.321250 298.000000
36.340733 335.000000
36.360215 332.000000
36.379697 341.000000
36.399180 326.000000
36.418662 318.000000
36.438144 312.000000
36.457627 300.000000
36.477109 312.000000
36.496592 356.000000
36.516074 305.000000
36.535556 312.000000
36.555039 338.000000
36.574521 288.000000
36.594003 313.000000
36.613486 331.000000
36.632968 324.000000
36.652450 313.000000
36.671933 344.000000
36.691415 317.000000
36.710898 330.000000
36.730380 318.000000
36.749862 355.000000
36.769345 330.000000
36.788827 305.000000
36.808309 314.000000
36.827792 324.000000
36.847274 314.000000
36.866757 336.000000
36.886239 350.000000
36.905721 335.000000
36.925204 373.000000
36.944686 338.000000
36.964168 372.000000
36.983651 352.000000
37.003133 392.000000
37.022615 466.000000
37.042098 669.000000
37.061580 895.000000
37.081063 1073.000000
37.100545 817.000000
37.120027 538.000000
37.139510 606.000000
37.158992 653.000000
37.178474 740.000000
37.197957 574.000000
37.217439 371.000000
37.236922 385.000000
37.256404 329.000000
37.275886 340.000000
37.295369 332.000000
37.314851 330.000000
37.334333 329.000000
37.353816 305.000000
37.373298 298.000000
37.392780 315.000000
37.412263 345.000000
37.431745 348.000000
37.451228 347.000000
37.470710 323.000000
37.490192 324.000000
37.509675 335.000000
37.529157 312.000000
37.548639 324.000000
37.568122 310.000000
37.587604 323.000000
37.607087 338.000000
37.626569 304.000000
37.646051 294.000000
37.665534 344.000000
37.685016 321.000000
37.704498 322.000000
37.723981 351.000000
37.743463 303.000000
37.762945 318.000000
37.782428 320.000000
37.801910 292.000000
37.821393 342.000000
37.840875 375.000000
37.860357 344.000000
37.879840 308.000000
37.899322 308.000000
37.918804 320.000000
37.938287 317.000000
37.957769 335.000000
37.977252 336.000000
37.996734 314.000000
38.016216 325.000000
38.035699 319.000000
38.055181 340.000000
38.074663 333.000000
38.094146 293.000000
38.113628 326.000000
38.133111 340.000000
38.152593 325.000000
38.172075 347.000000
38.191558 316.000000
38.211040 350.000000
38.230522 329.000000
38.250005 329.000000
38.269487 298.000000
38.288969 333.000000
38.308452 329.000000
38.327934 296.000000
38.347417 301.000000
38.366899 326.000000
38.386381 314.000000
38.405864 350.000000
38.425346 319.000000
38.444828 355.000000
38.464311 320.000000
38.483793 349.000000
38.503276 316.000000
38.522758 334.000000
38.542240 314.000000
38.561723 316.000000
38.581205 322.000000
38.600687 321.000000
38.620170 337.000000
38.639652 333.000000
38.659134 321.000000
38.678617 355.000000
38.698099 351.000000
38.717582 311.000000
38.737064 307.000000
38.756546 326.000000
38.776029 326.000000
38.795511 343.000000
38.814993 322.000000
38.834476 346.000000
38.853958 309.000000
38.873441 333.000000
38.892923 367.000000
38.912405 300.000000
38.931888 329.000000
38.951370 345.000000
38.970852 340.000000
38.990335 324.000000
39.009817 330.000000
39.029299 350.000000
39.048782 352.000000
39.068264 279.000000
39.087747 329.000000
39.107229 301.000000
39.126711 333.000000
39.146194 354.000000
39.165676 326.000000
39.185158 352.000000
39.204641 355.000000
39.224123 334.000000
39.243606 335.000000
39.263088 307.000000
39.282570 357.000000
39.302053 345.000000
39.321535 322.000000
39.341017 341.000000
39.360500 327.000000
39.379982 325.000000
39.399464 312.000000
39.418947 342.000000
39.438429 341.000000
39.457912 325.000000
39.477394 337.000000
39.496876 339.000000
39.516359 328.000000
39.535841 306.000000
39.555323 335.000000
39.574806 347.000000
39.594288 359.000000
39.613771 337.000000
39.633253 344.000000
39.652735 309.000000
39.672218 301.000000
39.691700 336.000000
39.711182 317.000000
39.730665 367.000000
39.750147 339.000000
39.769630 347.000000
39.789112 356.000000
39.808594 321.000000
39.828077 339.000000
39.847559 312.000000
39.867041 358.000000
39.886524 335.000000
39.906006 325.000000
39.925488 325.000000
39.944971 340.000000
39.964453 323.000000
39.983936 340.000000
40.003418 372.000000
40.022900 314.000000
40.042383 324.000000
40.061865 315.000000
40.081347 294.000000
40.100830 342.000000
40.120312 341.000000
40.139795 330.000000
40.159277 331.000000
40.178759 324.000000
40.198242 307.000000
40.217724 324.000000
40.237206 331.000000
40.256689 318.000000
40.276171 351.000000
40.295653 345.000000
40.315136 322.000000
40.334618 350.000000
40.354101 334.000000
40.373583 347.000000
40.393065 316.000000
40.412548 335.000000
40.432030 350.000000
40.451512 365.000000
40.470995 341.000000
40.490477 336.000000
40.509960 337.000000
40.529442 354.000000
40.548924 348.000000
40.568407 309.000000
40.587889 371.000000
40.607371 356.000000
40.626854 353.000000
40.646336 353.000000
40.665818 393.000000
40.685301 384.000000
40.704783 450.000000
40.724266 587.000000
40.743748 879.000000
40.763230 1224.000000
40.782713 1134.000000
40.802195 636.000000
40.821677 504.000000
40.841160 577.000000
40.860642 718.000000
40.880125 758.000000
40.899607 578.000000
40.919089 386.000000
40.938572 393.000000
40.958054 401.000000
40.977536 351.000000
40.997019 368.000000
41.016501 352.000000
41.035983 348.000000
41.055466 389.000000
41.074948 363.000000
41.094431 347.000000
41.113913 359.000000
41.133395 362.000000
41.152878 304.000000
41.172360 362.000000
41.191842 379.000000
41.211325 319.000000
41.230807 341.000000
41.250290 345.000000
41.269772 342.000000
41.289254 347.000000
41.308737 307.000000
41.328219 381.000000
41.347701 348.000000
41.367184 339.000000
41.386666 321.000000
41.406149 331.000000
41.425631 339.000000
41.445113 311.000000
41.464596 340.000000
41.484078 349.000000
41.503560 317.000000
41.523043 348.000000
41.542525 328.000000
41.562007 335.000000
41.581490 284.000000
41.600972 338.000000
41.620455 335.000000
41.639937 346.000000
41.659419 359.000000
41.678902 344.000000
41.698384 331.000000
41.717866 324.000000
41.737349 370.000000
41.756831 325.000000
41.776314 319.000000
41.795796 335.000000
41.815278 338.000000
41.834761 322.000000
41.854243 371.000000
41.873725 356.000000
41.893208 304.000000
41.912690 339.000000
41.932172 331.000000
41.951655 348.000000
41.971137 333.000000
41.990620 346.000000
42.010102 353.000000
42.029584 328.000000
42.049067 337.000000
42.068549 396.000000
42.088031 346.000000
42.107514 321.000000
42.126996 328.000000
42.146479 357.000000
42.165961 342.000000
42.185443 343.000000
42.204926 317.000000
42.224408 336.000000
42.243890 356.000000
42.263373 320.000000
42.282855 338.000000
42.302337 375.000000
42.321820 349.000000
42.341302 332.000000
42.360785 368.000000
42.380267 357.000000
42.399749 337.000000
42.419232 327.000000
42.438714 329.000000
42.458196 323.000000
42.477679 322.000000
42.497161 350.000000
42.516644 363.000000
42.536126 350.000000
42.555608 341.000000
42.575091 362.000000
42.594573 329.000000
42.614055 340.000000
42.633538 341.000000
42.653020 339.000000
42.672502 331.000000
42.691985 340.000000
42.711467 363.000000
42.730950 324.000000
42.750432 338.000000
42.769914 330.000000
42.789397 328.000000
42.808879 325.000000
42.828361 324.000000
42.847844 366.000000
42.867326 338.000000
42.886809 338.000000
42.906291 314.000000
42.925773 350.000000
42.945256 373.000000
42.964738 314.000000
42.984220 365.000000
43.003703 340.000000
43.023185 356.000000
43.042667 360.000000
43.062150 328.000000
43.081632 314.000000
43.101115 320.000000
43.120597 353.000000
43.140079 313.000000
43.159562 333.000000
43.179044 353.000000
43.198526 332.000000
43.218009 346.000000
43.237491 350.000000
43.256974 336.000000
43.276456 340.000000
43.295938 351.000000
43.315421 329.000000
43.334903 322.000000
43.354385 340.000000
43.373868 377.000000
43.393350 352.000000
43.412833 349.000000
43.432315 345.000000
43.451797 354.000000
43.471280 341.000000
43.490762 279.000000
43.510244 358.000000
43.529727 339.000000
43.549209 307.000000
43.568691 284.000000
43.588174 331.000000
43.607656 336.000000
43.627139 356.000000
43.646621 368.000000
43.666103 341.000000
43.685586 332.000000
43.705068 340.000000
43.724550 332.000000
43.744033 320.000000
43.763515 332.000000
43.782998 335.000000
43.802480 328.000000
43.821962 309.000000
43.841445 308.000000
43.860927 332.000000
43.880409 335.000000
43.899892 315.000000
43.919374 325.000000
43.938856 340.000000
43.958339 353.000000
43.977821 300.000000
43.997304 326.000000
44.016786 332.000000
44.036268 321.000000
44.055751 357.000000
44.075233 332.000000
44.094715 331.000000
44.114198 339.000000
44.133680 344.000000
44.153163 367.000000
44.172645 366.000000
44.192127 321.000000
44.211610 341.000000
44.231092 340.000000
44.250574 322.000000
44.270057 354.000000
44.289539 337.000000
44.309021 310.000000
44.328504 315.000000
44.347986 330.000000
44.367469 353.000000
44.386951 321.000000
44.406433 348.000000
44.425916 354.000000
44.445398 336.000000
44.464880 340.000000
44.484363 318.000000
44.503845 308.000000
44.523328 336.000000
44.542810 332.000000
44.562292 312.000000
44.581775 327.000000
44.601257 348.000000
44.620739 369.000000
44.640222 348.000000
44.659704 304.000000
44.679186 346.000000
44.698669 317.000000
44.718151 331.000000
44.737634 326.000000
44.757116 338.000000
44.776598 311.000000
44.796081 338.000000
44.815563 323.000000
44.835045 348.000000
44.854528 338.000000
44.874010 364.000000
44.893493 315.000000
44.912975 300.000000
44.932457 327.000000
44.951940 354.000000
44.971422 328.000000
44.990904 364.000000
45.010387 340.000000
45.029869 348.000000
45.049352 337.000000
45.068834 348.000000
45.088316 348.000000
45.107799 335.000000
45.127281 323.000000
45.146763 315.000000
45.166246 333.000000
45.185728 377.000000
45.205210 355.000000
45.224693 342.000000
45.244175 340.000000
45.263658 330.000000
45.283140 350.000000
45.302622 346.000000
45.322105 361.000000
45.341587 340.000000
45.361069 320.000000
45.380552 330.000000
45.400034 316.000000
45.419517 348.000000
45.438999 345.000000
45.458481 290.000000
45.477964 357.000000
45.497446 324.000000
45.516928 357.000000
45.536411 336.000000
45.555893 348.000000
45.575375 327.000000
45.594858 334.000000
45.614340 343.000000
45.633823 347.000000
45.653305 336.000000
45.672787 333.000000
45.692270 332.000000
45.711752 376.000000
45.731234 313.000000
45.750717 337.000000
45.770199 350.000000
45.789682 362.000000
45.809164 338.000000
45.828646 357.000000
45.848129 331.000000
45.867611 321.000000
45.887093 335.000000
45.906576 355.000000
45.926058 309.000000
45.945540 340.000000
45.965023 324.000000
45.984505 311.000000
46.003988 348.000000
46.023470 350.000000
46.042952 353.000000
46.062435 349.000000
46.081917 315.000000
46.101399 364.000000
46.120882 349.000000
46.140364 327.000000
46.159847 329.000000
46.179329 319.000000
46.198811 340.000000
46.218294 337.000000
46.237776 349.000000
46.257258 321.000000
46.276741 360.000000
46.296223 316.000000
46.315705 369.000000
46.335188 330.000000
46.354670 315.000000
46.374153 352.000000
46.393635 319.000000
46.413117 339.000000
46.432600 347.000000
46.452082 331.000000
46.471564 337.000000
46.491047 330.000000
46.510529 343.000000
46.530012 327.000000
46.549494 340.000000
46.568976 304.000000
46.588459 336.000000
46.607941 345.000000
46.627423 289.000000
46.646906 339.000000
46.666388 324.000000
46.685871 343.000000
46.705353 328.000000
46.724835 357.000000
46.744318 347.000000
46.763800 316.000000
46.783282 342.000000
46.802765 334.000000
46.822247 345.000000
46.841729 348.000000
46.861212 338.000000
46.880694 353.000000
46.900177 337.000000
46.919659 298.000000
46.939141 353.000000
46.958624 338.000000
46.978106 338.000000
46.997588 328.000000
47.017071 350.000000
47.036553 336.000000
47.056036 387.000000
47.075518 337.000000
47.095000 333.000000
47.114483 318.000000
47.133965 362.000000
47.153447 364.000000
47.172930 331.000000
47.192412 349.000000
47.211894 349.000000
47.231377 348.000000
47.250859 387.000000
47.270342 344.000000
47.289824 358.000000
47.309306 362.000000
47.328789 405.000000
47.348271 379.000000
47.367753 440.000000
47.387236 546.000000
47.406718 760.000000
47.426201 916.000000
47.445683 787.000000
47.465165 677.000000
47.484648 493.000000
47.504130 446.000000
47.523612 513.000000
47.543095 620.000000
47.562577 606.000000
47.582059 507.000000
47.601542 421.000000
47.621024 422.000000
47.640507 394.000000
47.659989 342.000000
47.679471 354.000000
47.698954 325.000000
47.718436 326.000000
47.737918 349.000000
47.757401 357.000000
47.776883 331.000000
47.796366 391.000000
47.815848 342.000000
47.835330 351.000000
47.854813 358.000000
47.874295 352.000000
47.893777 342.000000
47.913260 349.000000
47.932742 336.000000
47.952224 358.000000
47.971707 329.000000
47.991189 340.000000
48.010672 357.000000
48.030154 342.000000
48.049636 351.000000
48.069119 364.000000
48.088601 369.000000
48.108083 340.000000
48.127566 328.000000
48.147048 317.000000
48.166531 326.000000
48.186013 328.000000
48.205495 342.000000
48.224978 370.000000
48.244460 381.000000
48.263942 303.000000
48.283425 346.000000
48.302907 344.000000
48.322389 358.000000
48.341872 370.000000
48.361354 336.000000
48.380837 357.000000
48.400319 364.000000
48.419801 333.000000
48.439284 333.000000
48.458766 353.000000
48.478248 343.000000
48.497731 341.000000
48.517213 398.000000
48.536696 338.000000
48.556178 348.000000
48.575660 360.000000
48.595143 321.000000
48.614625 329.000000
48.634107 346.000000
48.653590 331.000000
48.673072 348.000000
48.692555 347.000000
48.712037 344.000000
48.731519 365.000000
48.751002 332.000000
48.770484 340.000000
48.789966 370.000000
48.809449 323.000000
48.828931 368.000000
48.848413 327.000000
48.867896 321.000000
48.887378 319.000000
48.906861 355.000000
48.926343 359.000000
48.945825 305.000000
48.965308 353.000000
48.984790 373.000000
49.004272 350.000000
49.023755 351.000000
49.043237 364.000000
49.062720 352.000000
49.082202 334.000000
49.101684 344.000000
49.121167 330.000000
49.140649 328.000000
49.160131 311.000000
49.179614 350.000000
49.199096 358.000000
49.218578 358.000000
49.238061 339.000000
49.257543 348.000000
49.277026 355.000000
49.296508 329.000000
49.315990 349.000000
49.335473 365.000000
49.354955 333.000000
49.374437 328.000000
49.393920 322.000000
49.413402 336.000000
49.432885 355.000000
49.452367 364.000000
49.471849 332.000000
49.491332 327.000000
49.510814 330.000000
49.530296 360.000000
49.549779 337.000000
49.569261 380.000000
49.588743 363.000000
49.608226 341.000000
49.627708 329.000000
49.647191 350.000000
49.666673 313.000000
49.686155 345.000000
49.705638 342.000000
49.725120 336.000000
49.744602 379.000000
49.764085 329.000000
49.783567 384.000000
49.803050 334.000000
49.822532 317.000000
49.842014 394.000000
49.861497 331.000000
49.880979 352.000000
49.900461 354.000000
49.919944 351.000000
49.939426 349.000000
49.958908 318.000000
49.978391 350.000000
49.997873 391.000000
50.017356 344.000000
50.036838 344.000000
50.056320 383.000000
50.075803 325.000000
50.095285 350.000000
50.114767 338.000000
50.134250 366.000000
50.153732 340.000000
50.173215 326.000000
50.192697 362.000000
50.212179 363.000000
50.231662 319.000000
50.251144 342.000000
50.270626 330.000000
50.290109 336.000000
50.309591 338.000000
50.329074 343.000000
50.348556 335.000000
50.368038 350.000000
50.387521 345.000000
50.407003 378.000000
50.426485 372.000000
50.445968 336.000000
50.465450 405.000000
50.484932 369.000000
50.504415 342.000000
50.523897 369.000000
50.543380 354.000000
50.562862 371.000000
50.582344 348.000000
50.601827 360.000000
50.621309 372.000000
50.640791 351.000000
50.660274 317.000000
50.679756 350.000000
50.699239 350.000000
50.718721 358.000000
50.738203 347.000000
50.757686 354.000000
50.777168 339.000000
50.796650 364.000000
50.816133 342.000000
50.835615 328.000000
50.855097 344.000000
50.874580 353.000000
50.894062 311.000000
50.913545 363.000000
50.933027 359.000000
50.952509 361.000000
50.971992 366.000000
50.991474 379.000000
51.010956 362.000000
51.030439 375.000000
51.049921 351.000000
51.069404 381.000000
51.088886 349.000000
51.108368 388.000000
51.127851 355.000000
51.147333 343.000000
51.166815 341.000000
51.186298 320.000000
51.205780 339.000000
51.225262 352.000000
51.244745 354.000000
51.264227 324.000000
51.283710 344.000000
51.303192 339.000000
51.322674 312.000000
51.342157 315.000000
51.361639 340.000000
51.381121 369.000000
51.400604 337.000000
51.420086 309.000000
51.439569 318.000000
51.459051 369.000000
51.478533 342.000000
51.498016 341.000000
51.517498 360.000000
51.536980 365.000000
51.556463 335.000000
51.575945 338.000000
51.595427 345.000000
51.614910 351.000000
51.634392 332.000000
51.653875 340.000000
51.673357 337.000000
51.692839 353.000000
51.712322 325.000000
51.731804 345.000000
51.751286 337.000000
51.770769 355.000000
51.790251 346.000000
51.809734 381.000000
51.829216 325.000000
51.848698 337.000000
51.868181 354.000000
51.887663 363.000000
51.907145 330.000000
51.926628 371.000000
51.946110 346.000000
51.965593 344.000000
51.985075 356.000000
52.004557 340.000000
52.024040 347.000000
52.043522 348.000000
52.063004 371.000000
52.082487 365.000000
52.101969 343.000000
52.121451 381.000000
52.140934 348.000000
52.160416 333.000000
52.179899 315.000000
52.199381 312.000000
52.218863 369.000000
52.238346 341.000000
52.257828 388.000000
52.277310 362.000000
52.296793 310.000000
52.316275 321.000000
52.335758 379.000000
52.355240 347.000000
52.374722 324.000000
52.394205 341.000000
52.413687 329.000000
52.433169 365.000000
52.452652 339.000000
52.472134 329.000000
52.491616 341.000000
52.511099 368.000000
52.530581 312.000000
52.550064 340.000000
52.569546 355.000000
52.589028 376.000000
52.608511 355.000000
52.627993 395.000000
52.647475 347.000000
52.666958 335.000000
52.686440 358.000000
52.705923 324.000000
52.725405 357.000000
52.744887 332.000000
52.764370 317.000000
52.783852 346.000000
52.803334 360.000000
52.822817 370.000000
52.842299 344.000000
52.861781 345.000000
52.881264 336.000000
52.900746 360.000000
52.920229 338.000000
52.939711 334.000000
52.959193 344.000000
52.978676 340.000000
52.998158 335.000000
53.017640 364.000000
53.037123 333.000000
53.056605 357.000000
53.076088 335.000000
53.095570 337.000000
53.115052 334.000000
53.134535 329.000000
53.154017 330.000000
53.173499 348.000000
53.192982 363.000000
53.212464 338.000000
53.231946 352.000000
53.251429 357.000000
53.270911 375.000000
53.290394 360.000000
53.309876 329.000000
53.329358 340.000000
53.348841 352.000000
53.368323 328.000000
53.387805 362.000000
53.407288 320.000000
53.426770 353.000000
53.446253 343.000000
53.465735 356.000000
53.485217 345.000000
53.504700 367.000000
53.524182 361.000000
53.543664 346.000000
53.563147 344.000000
53.582629 379.000000
53.602112 353.000000
53.621594 375.000000
53.641076 335.000000
53.660559 315.000000
53.680041 333.000000
53.699523 339.000000
53.719006 372.000000
53.738488 362.000000
53.757970 331.000000
53.777453 363.000000
53.796935 356.000000
53.816418 351.000000
53.835900 355.000000
53.855382 346.000000
53.874865 350.000000
53.894347 341.000000
53.913829 334.000000
53.933312 322.000000
53.952794 381.000000
53.972277 339.000000
53.991759 390.000000
54.011241 333.000000
54.030724 351.000000
54.050206 333.000000
54.069688 330.000000
54.089171 339.000000
54.108653 346.000000
54.128135 367.000000
54.147618 323.000000
54.167100 358.000000
54.186583 363.000000
54.206065 338.000000
54.225547 354.000000
54.245030 371.000000
54.264512 362.000000
54.283994 347.000000
54.303477 339.000000
54.322959 351.000000
54.342442 356.000000
54.361924 376.000000
54.381406 378.000000
54.400889 328.000000
54.420371 327.000000
54.439853 331.000000
54.459336 375.000000
54.478818 318.000000
54.498300 376.000000
54.517783 367.000000
54.537265 351.000000
54.556748 357.000000
54.576230 365.000000
54.595712 375.000000
54.615195 349.000000
54.634677 345.000000
54.654159 322.000000
54.673642 354.000000
54.693124 354.000000
54.712607 344.000000
54.732089 356.000000
54.751571 351.000000
54.771054 343.000000
54.790536 347.000000
54.810018 327.000000
54.829501 318.000000
54.848983 351.000000
54.868465 359.000000
54.887948 354.000000
54.907430 371.000000
54.926913 360.000000
54.946395 402.000000
54.965877 334.000000
54.985360 356.000000
55.004842 342.000000
55.024324 369.000000
55.043807 375.000000
55.063289 342.000000
55.082772 339.000000
55.102254 359.000000
55.121736 379.000000
55.141219 371.000000
55.160701 358.000000
55.180183 349.000000
55.199666 354.000000
55.219148 341.000000
55.238630 344.000000
55.258113 344.000000
55.277595 334.000000
55.297078 386.000000
55.316560 366.000000
55.336042 361.000000
55.355525 358.000000
55.375007 360.000000
55.394489 327.000000
55.413972 357.000000
55.433454 351.000000
55.452937 319.000000
55.472419 343.000000
55.491901 377.000000
55.511384 364.000000
55.530866 350.000000
55.550348 362.000000
55.569831 349.000000
55.589313 356.000000
55.608796 350.000000
55.628278 369.000000
55.647760 375.000000
55.667243 360.000000
55.686725 336.000000
55.706207 352.000000
55.725690 357.000000
55.745172 370.000000
55.764654 355.000000
55.784137 376.000000
55.803619 364.000000
55.823102 349.000000
55.842584 369.000000
55.862066 379.000000
55.881549 355.000000
55.901031 334.000000
55.920513 347.000000
55.939996 381.000000
55.959478 380.000000
55.978961 353.000000
55.998443 389.000000
56.017925 400.000000
56.037408 395.000000
56.056890 398.000000
56.076372 401.000000
56.095855 400.000000
56.115337 371.000000
56.134819 392.000000
56.154302 457.000000
56.173784 467.000000
56.193267 562.000000
56.212749 746.000000
56.232231 1073.000000
56.251714 1411.000000
56.271196 1677.000000
56.290678 1414.000000
56.310161 893.000000
56.329643 649.000000
56.349126 558.000000
56.368608 608.000000
56.388090 773.000000
56.407573 925.000000
56.427055 993.000000
56.446537 830.000000
56.466020 592.000000
56.485502 489.000000
56.504984 445.000000
56.524467 426.000000
56.543949 444.000000
56.563432 408.000000
56.582914 389.000000
56.602396 330.000000
56.621879 379.000000
56.641361 377.000000
56.660843 382.000000
56.680326 393.000000
56.699808 388.000000
56.719291 367.000000
56.738773 364.000000
56.758255 382.000000
56.777738 339.000000
56.797220 372.000000
56.816702 368.000000
56.836185 352.000000
56.855667 370.000000
56.875149 354.000000
56.894632 346.000000
56.914114 365.000000
56.933597 341.000000
56.953079 327.000000
56.972561 337.000000
56.992044 363.000000
57.011526 364.000000
57.031008 329.000000
57.050491 395.000000
57.069973 373.000000
57.089456 374.000000
57.108938 346.000000
57.128420 350.000000
57.147903 336.000000
57.167385 370.000000
57.186867 345.000000
57.206350 355.000000
57.225832 350.000000
57.245315 351.000000
57.264797 354.000000
57.284279 394.000000
57.303762 346.000000
57.323244 364.000000
57.342726 401.000000
57.362209 338.000000
57.381691 333.000000
57.401173 339.000000
57.420656 321.000000
57.440138 370.000000
57.459621 381.000000
57.479103 374.000000
57.498585 384.000000
57.518068 347.000000
57.537550 394.000000
57.557032 342.000000
57.576515 374.000000
57.595997 360.000000
57.615480 388.000000
57.634962 339.000000
57.654444 341.000000
57.673927 344.000000
57.693409 349.000000
57.712891 338.000000
57.732374 370.000000
57.751856 358.000000
57.771338 376.000000
57.790821 368.000000
57.810303 347.000000
57.829786 331.000000
57.849268 358.000000
57.868750 337.000000
57.888233 337.000000
57.907715 325.000000
57.927197 332.000000
57.946680 372.000000
57.966162 375.000000
57.985645 369.000000
58.005127 377.000000
58.024609 363.000000
58.044092 359.000000
58.063574 370.000000
58.083056 343.000000
58.102539 350.000000
58.122021 380.000000
58.141503 391.000000
58.160986 348.000000
58.180468 324.000000
58.199951 368.000000
58.219433 344.000000
58.238915 349.000000
58.258398 336.000000
58.277880 309.000000
58.297362 360.000000
58.316845 382.000000
58.336327 325.000000
58.355810 346.000000
58.375292 343.000000
58.394774 374.000000
58.414257 385.000000
58.433739 362.000000
58.453221 377.000000
58.472704 350.000000
58.492186 347.000000
58.511668 378.000000
58.531151 360.000000
58.550633 337.000000
58.570116 350.000000
58.589598 361.000000
58.609080 377.000000
58.628563 339.000000
58.648045 382.000000
58.667527 330.000000
58.687010 349.000000
58.706492 358.000000
58.725975 378.000000
58.745457 385.000000
58.764939 344.000000
58.784422 368.000000
58.803904 394.000000
58.823386 371.000000
58.842869 353.000000
58.862351 364.000000
58.881834 343.000000
58.901316 417.000000
58.920798 377.000000
58.940281 403.000000
58.959763 409.000000
58.979245 415.000000
58.998728 493.000000
59.018210 488.000000
59.037692 493.000000
59.057175 452.000000
59.076657 430.000000
59.096140 358.000000
59.115622 396.000000
59.135104 412.000000
59.154587 406.000000
59.174069 452.000000
59.193551 423.000000
59.213034 419.000000
59.232516 360.000000
59.251999 372.000000
59.271481 349.000000
59.290963 386.000000
59.310446 359.000000
59.329928 363.000000
59.349410 367.000000
59.368893 373.000000
59.388375 386.000000
59.407857 382.000000
59.427340 353.000000
59.446822 360.000000
59.466305 348.000000
59.485787 360.000000
59.505269 382.000000
59.524752 361.000000
59.544234 364.000000
59.563716 383.000000
59.583199 342.000000
59.602681 371.000000
59.622164 357.000000
59.641646 360.000000
59.661128 364.000000
59.680611 433.000000
59.700093 374.000000
59.719575 354.000000
59.739058 366.000000
59.758540 335.000000
59.778022 381.000000
59.797505 387.000000
59.816987 361.000000
59.836470 323.000000
59.855952 372.000000
59.875434 363.000000
59.894917 367.000000
59.914399 364.000000
59.933881 393.000000
59.953364 389.000000
59.972846 333.000000
59.992329 363.000000
60.011811 379.000000
60.031293 350.000000
60.050776 367.000000
60.070258 351.000000
60.089740 367.000000
60.109223 353.000000
60.128705 338.000000
60.148187 375.000000
60.167670 348.000000
60.187152 373.000000
60.206635 372.000000
60.226117 386.000000
60.245599 371.000000
60.265082 367.000000
60.284564 388.000000
60.304046 365.000000
60.323529 391.000000
60.343011 343.000000
60.362494 338.000000
60.381976 342.000000
60.401458 373.000000
60.420941 376.000000
60.440423 330.000000
60.459905 322.000000
60.479388 350.000000
60.498870 363.000000
60.518352 357.000000
60.537835 352.000000
60.557317 354.000000
60.576800 377.000000
60.596282 391.000000
60.615764 367.000000
60.635247 378.000000
60.654729 388.000000
60.674211 375.000000
60.693694 379.000000
60.713176 335.000000
60.732659 370.000000
60.752141 365.000000
60.771623 375.000000
60.791106 362.000000
60.810588 368.000000
60.830070 339.000000
60.849553 333.000000
60.869035 374.000000
60.888518 323.000000
60.908000 375.000000
60.927482 398.000000
60.946965 324.000000
60.966447 372.000000
60.985929 352.000000
61.005412 344.000000
61.024894 358.000000
61.044376 375.000000
61.063859 375.000000
61.083341 344.000000
61.102824 393.000000
61.122306 348.000000
61.141788 341.000000
61.161271 399.000000
61.180753 397.000000
61.200235 326.000000
61.219718 384.000000
61.239200 350.000000
61.258683 343.000000
61.278165 379.000000
61.297647 349.000000
61.317130 370.000000
61.336612 359.000000
61.356094 368.000000
61.375577 352.000000
61.395059 341.000000
61.414541 409.000000
61.434024 346.000000
61.453506 387.000000
61.472989 349.000000
61.492471 347.000000
61.511953 365.000000
61.531436 361.000000
61.550918 367.000000
61.570400 367.000000
61.589883 382.000000
61.609365 427.000000
61.628848 430.000000
61.648330 487.000000
61.667812 626.000000
61.687295 628.000000
61.706777 524.000000
61.726259 455.000000
61.745742 419.000000
61.765224 417.000000
61.784706 371.000000
61.804189 409.000000
61.823671 433.000000
61.843154 471.000000
61.862636 509.000000
61.882118 438.000000
61.901601 395.000000
61.921083 393.000000
61.940565 395.000000
61.960048 396.000000
61.979530 369.000000
61.999013 379.000000
62.018495 360.000000
62.037977 339.000000
62.057460 383.000000
62.076942 326.000000
62.096424 353.000000
62.115907 333.000000
62.135389 353.000000
62.154871 374.000000
62.174354 346.000000
62.193836 365.000000
62.213319 398.000000
62.232801 338.000000
62.252283 358.000000
62.271766 357.000000
62.291248 354.000000
62.310730 355.000000
62.330213 367.000000
62.349695 372.000000
62.369178 375.000000
62.388660 348.000000
62.408142 351.000000
62.427625 363.000000
62.447107 357.000000
62.466589 359.000000
62.486072 369.000000
62.505554 352.000000
62.525037 391.000000
62.544519 350.000000
62.564001 377.000000
62.583484 349.000000
62.602966 371.000000
62.622448 353.000000
62.641931 380.000000
62.661413 354.000000
62.680895 332.000000
62.700378 360.000000
62.719860 375.000000
62.739343 357.000000
62.758825 404.000000
62.778307 362.000000
62.797790 349.000000
62.817272 372.000000
62.836754 401.000000
62.856237 340.000000
62.875719 361.000000
62.895202 361.000000
62.914684 393.000000
62.934166 399.000000
62.953649 357.000000
62.973131 373.000000
62.992613 332.000000
63.012096 363.000000
63.031578 350.000000
63.051060 363.000000
63.070543 375.000000
63.090025 344.000000
63.109508 380.000000
63.128990 392.000000
63.148472 350.000000
63.167955 353.000000
63.187437 345.000000
63.206919 363.000000
63.226402 373.000000
63.245884 331.000000
63.265367 354.000000
63.284849 395.000000
63.304331 363.000000
63.323814 377.000000
63.343296 354.000000
63.362778 370.000000
63.382261 393.000000
63.401743 342.000000
63.421225 379.000000
63.440708 369.000000
63.460190 387.000000
63.479673 366.000000
63.499155 350.000000
63.518637 367.000000
63.538120 399.000000
63.557602 363.000000
63.577084 341.000000
63.596567 370.000000
63.616049 376.000000
63.635532 352.000000
63.655014 353.000000
63.674496 392.000000
63.693979 367.000000
63.713461 354.000000
63.732943 392.000000
63.752426 353.000000
63.771908 341.000000
63.791390 378.000000
63.810873 357.000000
63.830355 378.000000
63.849838 369.000000
63.869320 372.000000
63.888802 349.000000
63.908285 324.000000
63.927767 383.000000
63.947249 352.000000
63.966732 399.000000
63.986214 382.000000
64.005697 374.000000
64.025179 343.000000
64.044661 364.000000
64.064144 386.000000
64.083626 362.000000
64.103108 361.000000
64.122591 342.000000
64.142073 378.000000
64.161556 385.000000
64.181038 394.000000
64.200520 417.000000
64.220003 418.000000
64.239485 441.000000
64.258967 594.000000
64.278450 699.000000
64.297932 750.000000
64.317414 629.000000
64.336897 496.000000
64.356379 427.000000
64.375862 397.000000
64.395344 401.000000
64.414826 438.000000
64.434309 450.000000
64.453791 513.000000
64.473273 518.000000
64.492756 461.000000
64.512238 434.000000
64.531721 408.000000
64.551203 371.000000
64.570685 386.000000
64.590168 347.000000
64.609650 403.000000
64.629132 400.000000
64.648615 373.000000
64.668097 333.000000
64.687579 353.000000
64.707062 393.000000
64.726544 355.000000
64.746027 378.000000
64.765509 365.000000
64.784991 387.000000
64.804474 351.000000
64.823956 373.000000
64.843438 368.000000
64.862921 392.000000
64.882403 364.000000
64.901886 350.000000
64.921368 340.000000
64.940850 333.000000
64.960333 362.000000
64.979815 380.000000
64.999297 385.000000
65.018780 360.000000
65.038262 384.000000
65.057744 380.000000
65.077227 376.000000
65.096709 345.000000
65.116192 363.000000
65.135674 384.000000
65.155156 372.000000
65.174639 354.000000
65.194121 327.000000
65.213603 382.000000
65.233086 361.000000
65.252568 368.000000
65.272051 311.000000
65.291533 375.000000
65.311015 335.000000
65.330498 363.000000
65.349980 363.000000
65.369462 372.000000
65.388945 363.000000
65.408427 366.000000
65.427909 377.000000
65.447392 351.000000
65.466874 399.000000
65.486357 391.000000
65.505839 363.000000
65.525321 363.000000
65.544804 375.000000
65.564286 353.000000
65.583768 361.000000
65.603251 387.000000
65.622733 366.000000
65.642216 365.000000
65.661698 374.000000
65.681180 406.000000
65.700663 390.000000
65.720145 385.000000
65.739627 353.000000
65.759110 351.000000
65.778592 384.000000
65.798075 402.000000
65.817557 362.000000
65.837039 397.000000
65.856522 366.000000
65.876004 359.000000
65.895486 396.000000
65.914969 364.000000
65.934451 355.000000
65.953933 388.000000
65.973416 387.000000
65.992898 375.000000
66.012381 387.000000
66.031863 362.000000
66.051345 356.000000
66.070828 351.000000
66.090310 369.000000
66.109792 361.000000
66.129275 361.000000
66.148757 346.000000
66.168240 375.000000
66.187722 376.000000
66.207204 374.000000
66.226687 374.000000
66.246169 376.000000
66.265651 400.000000
66.285134 393.000000
66.304616 374.000000
66.324098 371.000000
66.343581 368.000000
66.363063 341.000000
66.382546 356.000000
66.402028 383.000000
66.421510 367.000000
66.440993 369.000000
66.460475 376.000000
66.479957 322.000000
66.499440 389.000000
66.518922 377.000000
66.538405 409.000000
66.557887 363.000000
66.577369 334.000000
66.596852 375.000000
66.616334 371.000000
66.635816 349.000000
66.655299 375.000000
66.674781 351.000000
66.694263 348.000000
66.713746 347.000000
66.733228 370.000000
66.752711 349.000000
66.772193 364.000000
66.791675 388.000000
66.811158 385.000000
66.830640 365.000000
66.850122 363.000000
66.869605 365.000000
66.889087 347.000000
66.908570 347.000000
66.928052 351.000000
66.947534 344.000000
66.967017 347.000000
66.986499 411.000000
67.005981 390.000000
67.025464 406.000000
67.044946 376.000000
67.064428 375.000000
67.083911 377.000000
67.103393 398.000000
67.122876 357.000000
67.142358 364.000000
67.161840 359.000000
67.181323 420.000000
67.200805 381.000000
67.220287 392.000000
67.239770 358.000000
67.259252 374.000000
67.278735 360.000000
67.298217 387.000000
67.317699 371.000000
67.337182 338.000000
67.356664 385.000000
67.376146 345.000000
67.395629 361.000000
67.415111 413.000000
67.434593 336.000000
67.454076 360.000000
67.473558 341.000000
67.493041 376.000000
67.512523 364.000000
67.532005 372.000000
67.551488 372.000000
67.570970 404.000000
67.590452 365.000000
67.609935 360.000000
67.629417 376.000000
67.648900 375.000000
67.668382 375.000000
67.687864 388.000000
67.707347 398.000000
67.726829 368.000000
67.746311 377.000000
67.765794 385.000000
67.785276 368.000000
67.804759 345.000000
67.824241 309.000000
67.843723 357.000000
67.863206 350.000000
67.882688 359.000000
67.902170 395.000000
67.921653 353.000000
67.941135 370.000000
67.960617 363.000000
67.980100 346.000000
67.999582 350.000000
68.019065 406.000000
68.038547 358.000000
68.058029 363.000000
68.077512 394.000000
68.096994 365.000000
68.116476 371.000000
68.135959 392.000000
68.155441 386.000000
68.174924 397.000000
68.194406 364.000000
68.213888 394.000000
68.233371 364.000000
68.252853 391.000000
68.272335 351.000000
68.291818 379.000000
68.311300 383.000000
68.330782 369.000000
68.350265 359.000000
68.369747 376.000000
68.389230 372.000000
68.408712 389.000000
68.428194 366.000000
68.447677 330.000000
68.467159 354.000000
68.486641 346.000000
68.506124 390.000000
68.525606 358.000000
68.545089 374.000000
68.564571 367.000000
68.584053 321.000000
68.603536 378.000000
68.623018 376.000000
68.642500 388.000000
68.661983 380.000000
68.681465 369.000000
68.700947 374.000000
68.720430 390.000000
68.739912 406.000000
68.759395 392.000000
68.778877 397.000000
68.798359 359.000000
68.817842 367.000000
68.837324 347.000000
68.856806 379.000000
68.876289 358.000000
68.895771 384.000000
68.915254 348.000000
68.934736 364.000000
68.954218 394.000000
68.973701 376.000000
68.993183 355.000000
69.012665 355.000000
69.032148 366.000000
69.051630 373.000000
69.071112 373.000000
69.090595 384.000000
69.110077 337.000000
69.129560 350.000000
69.149042 389.000000
69.168524 382.000000
69.188007 373.000000
69.207489 388.000000
69.226971 365.000000
69.246454 375.000000
69.265936 364.000000
69.285419 347.000000
69.304901 389.000000
69.324383 392.000000
69.343866 398.000000
69.363348 370.000000
69.382830 375.000000
69.402313 348.000000
69.421795 366.000000
69.441278 376.000000
69.460760 400.000000
69.480242 362.000000
69.499725 346.000000
69.519207 368.000000
69.538689 374.000000
69.558172 375.000000
69.577654 374.000000
69.597136 387.000000
69.616619 378.000000
69.636101 377.000000
69.655584 412.000000
69.675066 363.000000
69.694548 363.000000
69.714031 339.000000
69.733513 353.000000
69.752995 388.000000
69.772478 394.000000
69.791960 362.000000
69.811443 334.000000
69.830925 377.000000
69.850407 350.000000
69.869890 401.000000
69.889372 370.000000
69.908854 350.000000
69.928337 375.000000
69.947819 368.000000
69.967301 373.000000
69.986784 322.000000
70.006266 373.000000
70.025749 379.000000
