4.000000 288.000000
4.019482 285.000000
4.038965 293.000000
4.058447 295.000000
4.077929 318.000000
4.097412 271.000000
4.116894 290.000000
4.136377 279.000000
4.155859 285.000000
4.175341 288.000000
4.194824 260.000000
4.214306 272.000000
4.233788 268.000000
4.253271 288.000000
4.272753 258.000000
4.292236 256.000000
4.311718 271.000000
4.331200 238.000000
4.350683 272.000000
4.370165 238.000000
4.389647 254.000000
4.409130 217.000000
4.428612 238.000000
4.448094 259.000000
4.467577 263.000000
4.487059 211.000000
4.506542 275.000000
4.526024 238.000000
4.545506 197.000000
4.564989 223.000000
4.584471 220.000000
4.603953 211.000000
4.623436 223.000000
4.642918 198.000000
4.662401 250.000000
4.681883 219.000000
4.701365 230.000000
4.720848 249.000000
4.740330 221.000000
4.759812 220.000000
4.779295 206.000000
4.798777 232.000000
4.818259 202.000000
4.837742 224.000000
4.857224 222.000000
4.876707 221.000000
4.896189 186.000000
4.915671 187.000000
4.935154 204.000000
4.954636 193.000000
4.974118 203.000000
4.993601 204.000000
5.013083 241.000000
5.032566 211.000000
5.052048 185.000000
5.071530 202.000000
5.091013 195.000000
5.110495 210.000000
5.129977 194.000000
5.149460 215.000000
5.168942 199.000000
5.188425 201.000000
5.207907 189.000000
5.227389 189.000000
5.246872 177.000000
5.266354 200.000000
5.285836 203.000000
5.305319 205.000000
5.324801 205.000000
5.344283 195.000000
5.363766 213.000000
5.383248 184.000000
5.402731 195.000000
5.422213 197.000000
5.441695 201.000000
5.461178 196.000000
5.480660 188.000000
5.500142 205.000000
5.519625 164.000000
5.539107 224.000000
5.558590 198.000000
5.578072 192.000000
5.597554 188.000000
5.617037 197.000000
5.636519 211.000000
5.656001 176.000000
5.675484 176.000000
5.694966 183.000000
5.714448 206.000000
5.733931 180.000000
5.753413 176.000000
5.772896 174.000000
5.792378 189.000000
5.811860 180.000000
5.831343 175.000000
5.850825 152.000000
5.870307 187.000000
5.889790 190.000000
5.909272 200.000000
5.928755 192.000000
5.948237 203.000000
5.967719 171.000000
5.987202 165.000000
6.006684 168.000000
6.026166 163.000000
6.045649 147.000000
6.065131 165.000000
6.084613 176.000000
6.104096 177.000000
6.123578 191.000000
6.143061 170.000000
6.162543 162.000000
6.182025 177.000000
6.201508 173.000000
6.220990 170.000000
6.240472 162.000000
6.259955 178.000000
6.279437 183.000000
6.298920 195.000000
6.318402 175.000000
6.337884 186.000000
6.357367 157.000000
6.376849 171.000000
6.396331 160.000000
6.415814 165.000000
6.435296 181.000000
6.454778 157.000000
6.474261 182.000000
6.493743 148.000000
6.513226 164.000000
6.532708 176.000000
6.552190 167.000000
6.571673 166.000000
6.591155 188.000000
6.610637 179.000000
6.630120 183.000000
6.649602 153.000000
6.669085 180.000000
6.688567 154.000000
6.708049 173.000000
6.727532 155.000000
6.747014 177.000000
6.766496 171.000000
6.785979 154.000000
6.805461 153.000000
6.824944 171.000000
6.844426 188.000000
6.863908 168.000000
6.883391 163.000000
6.902873 180.000000
6.922355 179.000000
6.941838 163.000000
6.961320 183.000000
6.980802 167.000000
7.000285 173.000000
7.019767 173.000000
7.039250 164.000000
7.058732 151.000000
7.078214 171.000000
7.097697 158.000000
7.117179 143.000000
7.136661 188.000000
7.156144 144.000000
7.175626 156.000000
7.195109 158.000000
7.214591 142.000000
7.234073 180.000000
7.253556 159.000000
7.273038 160.000000
7.292520 150.000000
7.312003 155.000000
7.331485 157.000000
7.350967 147.000000
7.370450 142.000000
7.389932 157.000000
7.409415 128.000000
7.428897 154.000000
7.448379 135.000000
7.467862 148.000000
7.487344 152.000000
7.506826 157.000000
7.526309 134.000000
7.545791 151.000000
7.565274 153.000000
7.584756 153.000000
7.604238 178.000000
7.623721 189.000000
7.643203 153.000000
7.662685 153.000000
7.682168 147.000000
7.701650 154.000000
7.721132 146.000000
7.740615 149.000000
7.760097 160.000000
7.779580 152.000000
7.799062 167.000000
7.818544 151.000000
7.838027 165.000000
7.857509 183.000000
7.876991 149.000000
7.896474 164.000000
7.915956 140.000000
7.935439 148.000000
7.954921 152.000000
7.974403 163.000000
7.993886 160.000000
8.013368 147.000000
8.032850 154.000000
8.052333 161.000000
8.071815 140.000000
8.091297 148.000000
8.110780 157.000000
8.130262 155.000000
8.149745 143.000000
8.169227 186.000000
8.188709 146.000000
8.208192 161.000000
8.227674 146.000000
8.247156 170.000000
8.266639 162.000000
8.286121 156.000000
8.305604 145.000000
8.325086 142.000000
8.344568 143.000000
8.364051 176.000000
8.383533 135.000000
8.403015 145.000000
8.422498 158.000000
8.441980 165.000000
8.461463 160.000000
8.480945 147.000000
8.500427 151.000000
8.519910 143.000000
8.539392 166.000000
8.558874 139.000000
8.578357 159.000000
8.597839 121.000000
8.617321 149.000000
8.636804 170.000000
8.656286 163.000000
8.675769 164.000000
8.695251 137.000000
8.714733 163.000000
8.734216 148.000000
8.753698 139.000000
8.773180 115.000000
8.792663 148.000000
8.812145 176.000000
8.831628 143.000000
8.851110 145.000000
8.870592 155.000000
8.890075 166.000000
8.909557 172.000000
8.929039 146.000000
8.948522 152.000000
8.968004 151.000000
8.987486 163.000000
9.006969 153.000000
9.026451 152.000000
9.045934 122.000000
9.065416 161.000000
9.084898 180.000000
9.104381 163.000000
9.123863 144.000000
9.143345 139.000000
9.162828 152.000000
9.182310 157.000000
9.201793 151.000000
9.221275 164.000000
9.240757 154.000000
9.260240 140.000000
9.279722 153.000000
9.299204 157.000000
9.318687 159.000000
9.338169 149.000000
9.357651 151.000000
9.377134 148.000000
9.396616 130.000000
9.416099 148.000000
9.435581 161.000000
9.455063 148.000000
9.474546 132.000000
9.494028 164.000000
9.513510 177.000000
9.532993 144.000000
9.552475 163.000000
9.571958 159.000000
9.591440 123.000000
9.610922 153.000000
9.630405 173.000000
9.649887 154.000000
9.669369 162.000000
9.688852 147.000000
9.708334 129.000000
9.727816 143.000000
9.747299 140.000000
9.766781 138.000000
9.786264 140.000000
9.805746 155.000000
9.825228 156.000000
9.844711 128.000000
9.864193 152.000000
9.883675 140.000000
9.903158 140.000000
9.922640 165.000000
9.942123 145.000000
9.961605 137.000000
9.981087 155.000000
10.000570 137.000000
10.020052 150.000000
10.039534 145.000000
10.059017 137.000000
10.078499 153.000000
10.097982 128.000000
10.117464 142.000000
10.136946 162.000000
10.156429 140.000000
10.175911 161.000000
10.195393 143.000000
10.214876 142.000000
10.234358 136.000000
10.253840 159.000000
10.273323 135.000000
10.292805 160.000000
10.312288 149.000000
10.331770 153.000000
10.351252 143.000000
10.370735 136.000000
10.390217 156.000000
10.409699 150.000000
10.429182 147.000000
10.448664 155.000000
10.468147 150.000000
10.487629 162.000000
10.507111 159.000000
10.526594 140.000000
10.546076 147.000000
10.565558 150.000000
10.585041 127.000000
10.604523 143.000000
10.624005 142.000000
10.643488 153.000000
10.662970 154.000000
10.682453 153.000000
10.701935 130.000000
10.721417 124.000000
10.740900 169.000000
10.760382 160.000000
10.779864 150.000000
10.799347 162.000000
10.818829 144.000000
10.838312 132.000000
10.857794 159.000000
10.877276 161.000000
10.896759 159.000000
10.916241 144.000000
10.935723 164.000000
10.955206 154.000000
10.974688 133.000000
10.994170 154.000000
11.013653 183.000000
11.033135 158.000000
11.052618 142.000000
11.072100 161.000000
11.091582 150.000000
11.111065 155.000000
11.130547 147.000000
11.150029 151.000000
11.169512 134.000000
11.188994 162.000000
11.208477 145.000000
11.227959 143.000000
11.247441 135.000000
11.266924 154.000000
11.286406 151.000000
11.305888 154.000000
11.325371 135.000000
11.344853 158.000000
11.364335 150.000000
11.383818 158.000000
11.403300 145.000000
11.422783 151.000000
11.442265 140.000000
11.461747 160.000000
11.481230 130.000000
11.500712 145.000000
11.520194 145.000000
11.539677 153.000000
11.559159 180.000000
11.578642 169.000000
11.598124 149.000000
11.617606 155.000000
11.637089 144.000000
11.656571 176.000000
11.676053 158.000000
11.695536 143.000000
11.715018 155.000000
11.734500 158.000000
11.753983 128.000000
11.773465 152.000000
11.792948 146.000000
11.812430 140.000000
11.831912 154.000000
11.851395 151.000000
11.870877 141.000000
11.890359 150.000000
11.909842 163.000000
11.929324 147.000000
11.948807 156.000000
11.968289 143.000000
11.987771 136.000000
12.007254 148.000000
12.026736 145.000000
12.046218 159.000000
12.065701 172.000000
12.085183 142.000000
12.104666 148.000000
12.124148 146.000000
12.143630 177.000000
12.163113 147.000000
12.182595 137.000000
12.202077 147.000000
12.221560 151.000000
12.241042 149.000000
12.260524 151.000000
12.280007 153.000000
12.299489 173.000000
12.318972 148.000000
12.338454 154.000000
12.357936 156.000000
12.377419 145.000000
12.396901 146.000000
12.416383 145.000000
12.435866 158.000000
12.455348 159.000000
12.474831 145.000000
12.494313 157.000000
12.513795 159.000000
12.533278 142.000000
12.552760 150.000000
12.572242 152.000000
12.591725 169.000000
12.611207 154.000000
12.630689 158.000000
12.650172 128.000000
12.669654 151.000000
12.689137 137.000000
12.708619 144.000000
12.728101 148.000000
12.747584 163.000000
12.767066 153.000000
12.786548 145.000000
12.806031 163.000000
12.825513 167.000000
12.844996 146.000000
12.864478 148.000000
12.883960 155.000000
12.903443 184.000000
12.922925 152.000000
12.942407 152.000000
12.961890 146.000000
12.981372 167.000000
13.000854 163.000000
13.020337 167.000000
13.039819 137.000000
13.059302 170.000000
13.078784 156.000000
13.098266 151.000000
13.117749 132.000000
13.137231 129.000000
13.156713 144.000000
13.176196 154.000000
13.195678 132.000000
13.215161 165.000000
13.234643 168.000000
13.254125 147.000000
13.273608 156.000000
13.293090 125.000000
13.312572 144.000000
13.332055 129.000000
13.351537 139.000000
13.371019 138.000000
13.390502 125.000000
13.409984 145.000000
13.429467 147.000000
13.448949 163.000000
13.468431 144.000000
13.487914 157.000000
13.507396 140.000000
13.526878 148.000000
13.546361 149.000000
13.565843 141.000000
13.585326 156.000000
13.604808 176.000000
13.624290 156.000000
13.643773 154.000000
13.663255 149.000000
13.682737 144.000000
13.702220 154.000000
13.721702 157.000000
13.741185 157.000000
13.760667 135.000000
13.780149 148.000000
13.799632 184.000000
13.819114 145.000000
13.838596 157.000000
13.858079 156.000000
13.877561 141.000000
13.897043 161.000000
13.916526 148.000000
13.936008 139.000000
13.955491 152.000000
13.974973 166.000000
13.994455 167.000000
14.013938 154.000000
14.033420 138.000000
14.052902 151.000000
14.072385 145.000000
14.091867 138.000000
14.111350 129.000000
14.130832 164.000000
14.150314 166.000000
14.169797 167.000000
14.189279 147.000000
14.208761 153.000000
14.228244 127.000000
14.247726 166.000000
14.267208 156.000000
14.286691 150.000000
14.306173 160.000000
14.325656 140.000000
14.345138 132.000000
14.364620 141.000000
14.384103 132.000000
14.403585 159.000000
14.423067 156.000000
14.442550 135.000000
14.462032 127.000000
14.481515 143.000000
14.500997 156.000000
14.520479 141.000000
14.539962 151.000000
14.559444 141.000000
14.578926 148.000000
14.598409 168.000000
14.617891 156.000000
14.637373 153.000000
14.656856 145.000000
14.676338 163.000000
14.695821 166.000000
14.715303 137.000000
14.734785 173.000000
14.754268 155.000000
14.773750 154.000000
14.793232 147.000000
14.812715 116.000000
14.832197 134.000000
14.851680 146.000000
14.871162 144.000000
14.890644 165.000000
14.910127 163.000000
14.929609 144.000000
14.949091 154.000000
14.968574 152.000000
14.988056 132.000000
15.007538 146.000000
15.027021 168.000000
15.046503 154.000000
15.065986 154.000000
15.085468 158.000000
15.104950 174.000000
15.124433 136.000000
15.143915 149.000000
15.163397 124.000000
15.182880 146.000000
15.202362 156.000000
15.221845 140.000000
15.241327 144.000000
15.260809 142.000000
15.280292 152.000000
15.299774 152.000000
15.319256 129.000000
15.338739 155.000000
15.358221 134.000000
15.377704 156.000000
15.397186 138.000000
15.416668 146.000000
15.436151 141.000000
15.455633 140.000000
15.475115 165.000000
15.494598 147.000000
15.514080 143.000000
15.533562 149.000000
15.553045 148.000000
15.572527 134.000000
15.592010 134.000000
15.611492 142.000000
15.630974 175.000000
15.650457 155.000000
15.669939 140.000000
15.689421 156.000000
15.708904 150.000000
15.728386 128.000000
15.747869 156.000000
15.767351 163.000000
15.786833 157.000000
15.806316 157.000000
15.825798 152.000000
15.845280 162.000000
15.864763 146.000000
15.884245 155.000000
15.903727 143.000000
15.923210 152.000000
15.942692 149.000000
15.962175 142.000000
15.981657 164.000000
16.001139 157.000000
16.020622 155.000000
16.040104 147.000000
16.059586 152.000000
16.079069 133.000000
16.098551 157.000000
16.118034 152.000000
16.137516 156.000000
16.156998 161.000000
16.176481 159.000000
16.195963 165.000000
16.215445 143.000000
16.234928 153.000000
16.254410 153.000000
16.273892 126.000000
16.293375 145.000000
16.312857 157.000000
16.332340 143.000000
16.351822 169.000000
16.371304 130.000000
16.390787 163.000000
16.410269 137.000000
16.429751 137.000000
16.449234 129.000000
16.468716 148.000000
16.488199 130.000000
16.507681 148.000000
16.527163 147.000000
16.546646 162.000000
16.566128 151.000000
16.585610 149.000000
16.605093 129.000000
16.624575 150.000000
16.644057 157.000000
16.663540 144.000000
16.683022 140.000000
16.702505 132.000000
16.721987 149.000000
16.741469 148.000000
16.760952 115.000000
16.780434 145.000000
16.799916 151.000000
16.819399 150.000000
16.838881 148.000000
16.858364 132.000000
16.877846 146.000000
16.897328 122.000000
16.916811 169.000000
16.936293 141.000000
16.955775 137.000000
16.975258 152.000000
16.994740 125.000000
17.014222 154.000000
17.033705 136.000000
17.053187 145.000000
17.072670 139.000000
17.092152 133.000000
17.111634 139.000000
17.131117 158.000000
17.150599 186.000000
17.170081 159.000000
17.189564 148.000000
17.209046 147.000000
17.228529 165.000000
17.248011 159.000000
17.267493 150.000000
17.286976 154.000000
17.306458 134.000000
17.325940 141.000000
17.345423 152.000000
17.364905 133.000000
17.384388 143.000000
17.403870 138.000000
17.423352 148.000000
17.442835 169.000000
17.462317 129.000000
17.481799 142.000000
17.501282 164.000000
17.520764 145.000000
17.540246 161.000000
17.559729 144.000000
17.579211 141.000000
17.598694 145.000000
17.618176 159.000000
17.637658 147.000000
17.657141 149.000000
17.676623 152.000000
17.696105 122.000000
17.715588 129.000000
17.735070 150.000000
17.754553 157.000000
17.774035 134.000000
17.793517 143.000000
17.813000 148.000000
17.832482 155.000000
17.851964 155.000000
17.871447 122.000000
17.890929 148.000000
17.910411 156.000000
17.929894 143.000000
17.949376 154.000000
17.968859 138.000000
17.988341 136.000000
18.007823 127.000000
18.027306 162.000000
18.046788 152.000000
18.066270 162.000000
18.085753 144.000000
18.105235 146.000000
18.124718 178.000000
18.144200 151.000000
18.163682 153.000000
18.183165 134.000000
18.202647 145.000000
18.222129 148.000000
18.241612 125.000000
18.261094 143.000000
18.280576 161.000000
18.300059 140.000000
18.319541 137.000000
18.339024 140.000000
18.358506 140.000000
18.377988 169.000000
18.397471 149.000000
18.416953 154.000000
18.436435 161.000000
18.455918 146.000000
18.475400 138.000000
18.494883 165.000000
18.514365 151.000000
18.533847 140.000000
18.553330 157.000000
18.572812 165.000000
18.592294 156.000000
18.611777 152.000000
18.631259 150.000000
18.650741 161.000000
18.670224 147.000000
18.689706 144.000000
18.709189 154.000000
18.728671 155.000000
18.748153 155.000000
18.767636 162.000000
18.787118 147.000000
18.806600 163.000000
18.826083 151.000000
18.845565 143.000000
18.865048 149.000000
18.884530 164.000000
18.904012 149.000000
18.923495 157.000000
18.942977 158.000000
18.962459 147.000000
18.981942 130.000000
19.001424 139.000000
19.020907 145.000000
19.040389 144.000000
19.059871 140.000000
19.079354 142.000000
19.098836 140.000000
19.118318 152.000000
19.137801 125.000000
19.157283 128.000000
19.176765 141.000000
19.196248 159.000000
19.215730 157.000000
19.235213 144.000000
19.254695 143.000000
19.274177 156.000000
19.293660 138.000000
19.313142 143.000000
19.332624 165.000000
19.352107 155.000000
19.371589 140.000000
19.391072 144.000000
19.410554 149.000000
19.430036 140.000000
19.449519 163.000000
19.469001 145.000000
19.488483 146.000000
19.507966 138.000000
19.527448 156.000000
19.546930 145.000000
19.566413 138.000000
19.585895 142.000000
19.605378 161.000000
19.624860 139.000000
19.644342 152.000000
19.663825 133.000000
19.683307 147.000000
19.702789 163.000000
19.722272 131.000000
19.741754 128.000000
19.761237 150.000000
19.780719 144.000000
19.800201 137.000000
19.819684 146.000000
19.839166 154.000000
19.858648 135.000000
19.878131 138.000000
19.897613 137.000000
19.917095 137.000000
19.936578 173.000000
19.956060 143.000000
19.975543 128.000000
19.995025 152.000000
20.014507 165.000000
20.033990 162.000000
20.053472 149.000000
20.072954 170.000000
20.092437 138.000000
20.111919 159.000000
20.131402 127.000000
20.150884 167.000000
20.170366 158.000000
20.189849 144.000000
20.209331 139.000000
20.228813 144.000000
20.248296 135.000000
20.267778 131.000000
20.287260 140.000000
20.306743 139.000000
20.326225 163.000000
20.345708 147.000000
20.365190 146.000000
20.384672 137.000000
20.404155 152.000000
20.423637 153.000000
20.443119 158.000000
20.462602 147.000000
20.482084 121.000000
20.501567 146.000000
20.521049 134.000000
20.540531 139.000000
20.560014 148.000000
20.579496 125.000000
20.598978 151.000000
20.618461 163.000000
20.637943 157.000000
20.657426 145.000000
20.676908 148.000000
20.696390 161.000000
20.715873 143.000000
20.735355 147.000000
20.754837 165.000000
20.774320 147.000000
20.793802 153.000000
20.813284 148.000000
20.832767 149.000000
20.852249 146.000000
20.871732 150.000000
20.891214 161.000000
20.910696 140.000000
20.930179 152.000000
20.949661 149.000000
20.969143 144.000000
20.988626 142.000000
21.008108 152.000000
21.027591 167.000000
21.047073 141.000000
21.066555 158.000000
21.086038 157.000000
21.105520 144.000000
21.125002 143.000000
21.144485 132.000000
21.163967 152.000000
21.183449 149.000000
21.202932 163.000000
21.222414 158.000000
21.241897 134.000000
21.261379 149.000000
21.280861 166.000000
21.300344 149.000000
21.319826 157.000000
21.339308 153.000000
21.358791 124.000000
21.378273 168.000000
21.397756 154.000000
21.417238 136.000000
21.436720 151.000000
21.456203 151.000000
21.475685 134.000000
21.495167 160.000000
21.514650 160.000000
21.534132 147.000000
21.553614 128.000000
21.573097 146.000000
21.592579 168.000000
21.612062 155.000000
21.631544 150.000000
21.651026 160.000000
21.670509 133.000000
21.689991 144.000000
21.709473 170.000000
21.728956 124.000000
21.748438 164.000000
21.767921 176.000000
21.787403 156.000000
21.806885 153.000000
21.826368 152.000000
21.845850 167.000000
21.865332 144.000000
21.884815 144.000000
21.904297 146.000000
21.923779 161.000000
21.943262 139.000000
21.962744 145.000000
21.982227 170.000000
22.001709 135.000000
22.021191 151.000000
22.040674 146.000000
22.060156 148.000000
22.079638 160.000000
22.099121 132.000000
22.118603 137.000000
22.138086 154.000000
22.157568 136.000000
22.177050 143.000000
22.196533 135.000000
22.216015 154.000000
22.235497 159.000000
22.254980 122.000000
22.274462 147.000000
22.293945 147.000000
22.313427 133.000000
22.332909 176.000000
22.352392 146.000000
22.371874 136.000000
22.391356 168.000000
22.410839 135.000000
22.430321 144.000000
22.449803 160.000000
22.469286 134.000000
22.488768 146.000000
22.508251 134.000000
22.527733 160.000000
22.547215 143.000000
22.566698 130.000000
22.586180 134.000000
22.605662 163.000000
22.625145 144.000000
22.644627 143.000000
22.664110 133.000000
22.683592 165.000000
22.703074 158.000000
22.722557 130.000000
22.742039 137.000000
22.761521 149.000000
22.781004 140.000000
22.800486 155.000000
22.819968 144.000000
22.839451 152.000000
22.858933 123.000000
22.878416 150.000000
22.897898 150.000000
22.917380 147.000000
22.936863 146.000000
22.956345 144.000000
22.975827 147.000000
22.995310 144.000000
23.014792 136.000000
23.034275 156.000000
23.053757 166.000000
23.073239 165.000000
23.092722 139.000000
23.112204 143.000000
23.131686 163.000000
23.151169 150.000000
23.170651 168.000000
23.190133 157.000000
23.209616 161.000000
23.229098 153.000000
23.248581 155.000000
23.268063 146.000000
23.287545 157.000000
23.307028 145.000000
23.326510 148.000000
23.345992 156.000000
23.365475 142.000000
23.384957 127.000000
23.404440 140.000000
23.423922 150.000000
23.443404 129.000000
23.462887 158.000000
23.482369 175.000000
23.501851 139.000000
23.521334 168.000000
23.540816 183.000000
23.560298 165.000000
23.579781 172.000000
23.599263 168.000000
23.618746 141.000000
23.638228 167.000000
23.657710 149.000000
23.677193 138.000000
23.696675 141.000000
23.716157 140.000000
23.735640 135.000000
23.755122 137.000000
23.774605 157.000000
23.794087 160.000000
23.813569 163.000000
23.833052 159.000000
23.852534 153.000000
23.872016 150.000000
23.891499 151.000000
23.910981 137.000000
23.930463 152.000000
23.949946 161.000000
23.969428 127.000000
23.988911 158.000000
24.008393 151.000000
24.027875 152.000000
24.047358 157.000000
24.066840 162.000000
24.086322 146.000000
24.105805 139.000000
24.125287 139.000000
24.144770 148.000000
24.164252 140.000000
24.183734 134.000000
24.203217 155.000000
24.222699 145.000000
24.242181 140.000000
24.261664 151.000000
24.281146 131.000000
24.300629 154.000000
24.320111 140.000000
24.339593 157.000000
24.359076 134.000000
24.378558 162.000000
24.398040 143.000000
24.417523 162.000000
24.437005 156.000000
24.456487 149.000000
24.475970 139.000000
24.495452 153.000000
24.514935 143.000000
24.534417 152.000000
24.553899 158.000000
24.573382 140.000000
24.592864 158.000000
24.612346 154.000000
24.631829 127.000000
24.651311 167.000000
24.670794 165.000000
24.690276 137.000000
24.709758 153.000000
24.729241 138.000000
24.748723 157.000000
24.768205 163.000000
24.787688 177.000000
24.807170 176.000000
24.826652 154.000000
24.846135 152.000000
24.865617 137.000000
24.885100 143.000000
24.904582 137.000000
24.924064 157.000000
24.943547 139.000000
24.963029 128.000000
24.982511 145.000000
25.001994 171.000000
25.021476 161.000000
25.040959 139.000000
25.060441 176.000000
25.079923 167.000000
25.099406 142.000000
25.118888 140.000000
25.138370 168.000000
25.157853 155.000000
25.177335 171.000000
25.196817 148.000000
25.216300 145.000000
25.235782 152.000000
25.255265 146.000000
25.274747 157.000000
25.294229 151.000000
25.313712 144.000000
25.333194 158.000000
25.352676 129.000000
25.372159 150.000000
25.391641 143.000000
25.411124 125.000000
25.430606 154.000000
25.450088 140.000000
25.469571 158.000000
25.489053 148.000000
25.508535 166.000000
25.528018 148.000000
25.547500 161.000000
25.566982 148.000000
25.586465 145.000000
25.605947 127.000000
25.625430 126.000000
25.644912 149.000000
25.664394 156.000000
25.683877 166.000000
25.703359 144.000000
25.722841 137.000000
25.742324 146.000000
25.761806 152.000000
25.781289 144.000000
25.800771 141.000000
25.820253 143.000000
25.839736 152.000000
25.859218 165.000000
25.878700 152.000000
25.898183 154.000000
25.917665 160.000000
25.937148 152.000000
25.956630 146.000000
25.976112 154.000000
25.995595 167.000000
26.015077 166.000000
26.034559 161.000000
26.054042 139.000000
26.073524 138.000000
26.093006 145.000000
26.112489 151.000000
26.131971 145.000000
26.151454 166.000000
26.170936 163.000000
26.190418 158.000000
26.209901 141.000000
26.229383 158.000000
26.248865 159.000000
26.268348 151.000000
26.287830 146.000000
26.307313 147.000000
26.326795 162.000000
26.346277 131.000000
26.365760 166.000000
26.385242 158.000000
26.404724 163.000000
26.424207 152.000000
26.443689 161.000000
26.463171 144.000000
26.482654 154.000000
26.502136 157.000000
26.521619 135.000000
26.541101 136.000000
26.560583 142.000000
26.580066 145.000000
26.599548 181.000000
26.619030 148.000000
26.638513 161.000000
26.657995 158.000000
26.677478 164.000000
26.696960 156.000000
26.716442 161.000000
26.735925 148.000000
26.755407 154.000000
26.774889 153.000000
26.794372 147.000000
26.813854 168.000000
26.833336 181.000000
26.852819 178.000000
26.872301 142.000000
26.891784 170.000000
26.911266 162.000000
26.930748 160.000000
26.950231 156.000000
26.969713 172.000000
26.989195 159.000000
27.008678 135.000000
27.028160 171.000000
27.047643 165.000000
27.067125 154.000000
27.086607 138.000000
27.106090 157.000000
27.125572 160.000000
27.145054 150.000000
27.164537 152.000000
27.184019 147.000000
27.203501 149.000000
27.222984 147.000000
27.242466 143.000000
27.261949 176.000000
27.281431 137.000000
27.300913 165.000000
27.320396 163.000000
27.339878 150.000000
27.359360 157.000000
27.378843 133.000000
27.398325 150.000000
27.417808 134.000000
27.437290 152.000000
27.456772 129.000000
27.476255 163.000000
27.495737 150.000000
27.515219 148.000000
27.534702 165.000000
27.554184 162.000000
27.573667 127.000000
27.593149 143.000000
27.612631 155.000000
27.632114 156.000000
27.651596 154.000000
27.671078 137.000000
27.690561 140.000000
27.710043 166.000000
27.729525 157.000000
27.749008 160.000000
27.768490 184.000000
27.787973 159.000000
27.807455 152.000000
27.826937 142.000000
27.846420 147.000000
27.865902 144.000000
27.885384 153.000000
27.904867 140.000000
27.924349 137.000000
27.943832 153.000000
27.963314 156.000000
27.982796 156.000000
28.002279 160.000000
28.021761 135.000000
28.041243 137.000000
28.060726 147.000000
28.080208 151.000000
28.099690 139.000000
28.119173 158.000000
28.138655 153.000000
28.158138 134.000000
28.177620 161.000000
28.197102 169.000000
28.216585 173.000000
28.236067 155.000000
28.255549 144.000000
28.275032 168.000000
28.294514 153.000000
28.313997 159.000000
28.333479 169.000000
28.352961 158.000000
28.372444 140.000000
28.391926 166.000000
28.411408 183.000000
28.430891 182.000000
28.450373 190.000000
28.469855 254.000000
28.489338 387.000000
28.508820 481.000000
28.528303 412.000000
28.547785 329.000000
28.567267 279.000000
28.586750 289.000000
28.606232 261.000000
28.625714 216.000000
28.645197 166.000000
28.664679 157.000000
28.684162 154.000000
28.703644 129.000000
28.723126 171.000000
28.742609 172.000000
28.762091 156.000000
28.781573 141.000000
28.801056 167.000000
28.820538 158.000000
28.840020 151.000000
28.859503 133.000000
28.878985 151.000000
28.898468 159.000000
28.917950 149.000000
28.937432 160.000000
28.956915 172.000000
28.976397 159.000000
28.995879 155.000000
29.015362 158.000000
29.034844 166.000000
29.054327 139.000000
29.073809 151.000000
29.093291 162.000000
29.112774 175.000000
29.132256 142.000000
29.151738 170.000000
29.171221 164.000000
29.190703 140.000000
29.210185 148.000000
29.229668 153.000000
29.249150 150.000000
29.268633 165.000000
29.288115 149.000000
29.307597 158.000000
29.327080 154.000000
29.346562 154.000000
29.366044 166.000000
29.385527 163.000000
29.405009 148.000000
29.424492 147.000000
29.443974 158.000000
29.463456 172.000000
29.482939 172.000000
29.502421 148.000000
29.521903 157.000000
29.541386 137.000000
29.560868 146.000000
29.580351 162.000000
29.599833 162.000000
29.619315 139.000000
29.638798 138.000000
29.658280 129.000000
29.677762 161.000000
29.697245 160.000000
29.716727 148.000000
29.736209 165.000000
29.755692 159.000000
29.775174 169.000000
29.794657 158.000000
29.814139 155.000000
29.833621 154.000000
29.853104 161.000000
29.872586 137.000000
29.892068 145.000000
29.911551 161.000000
29.931033 143.000000
29.950516 167.000000
29.969998 162.000000
29.989480 172.000000
30.008963 177.000000
30.028445 176.000000
30.047927 170.000000
30.067410 129.000000
30.086892 167.000000
30.106374 144.000000
30.125857 162.000000
30.145339 154.000000
30.164822 124.000000
30.184304 157.000000
30.203786 161.000000
30.223269 148.000000
30.242751 146.000000
30.262233 169.000000
30.281716 159.000000
30.301198 153.000000
30.320681 151.000000
30.340163 134.000000
30.359645 146.000000
30.379128 157.000000
30.398610 152.000000
30.418092 167.000000
30.437575 183.000000
30.457057 160.000000
30.476539 139.000000
30.496022 160.000000
30.515504 167.000000
30.534987 168.000000
30.554469 166.000000
30.573951 165.000000
30.593434 164.000000
30.612916 173.000000
30.632398 155.000000
30.651881 144.000000
30.671363 170.000000
30.690846 171.000000
30.710328 169.000000
30.729810 149.000000
30.749293 147.000000
30.768775 145.000000
30.788257 169.000000
30.807740 155.000000
30.827222 170.000000
30.846704 153.000000
30.866187 149.000000
30.885669 117.000000
30.905152 174.000000
30.924634 186.000000
30.944116 135.000000
30.963599 154.000000
30.983081 140.000000
31.002563 173.000000
31.022046 168.000000
31.041528 155.000000
31.061011 131.000000
31.080493 157.000000
31.099975 166.000000
31.119458 149.000000
31.138940 144.000000
31.158422 175.000000
31.177905 150.000000
31.197387 176.000000
31.216870 166.000000
31.236352 168.000000
31.255834 149.000000
31.275317 154.000000
31.294799 163.000000
31.314281 159.000000
31.333764 140.000000
31.353246 148.000000
31.372728 154.000000
31.392211 166.000000
31.411693 159.000000
31.431176 158.000000
31.450658 164.000000
31.470140 142.000000
31.489623 146.000000
31.509105 173.000000
31.528587 176.000000
31.548070 164.000000
31.567552 134.000000
31.587035 140.000000
31.606517 139.000000
31.625999 150.000000
31.645482 158.000000
31.664964 171.000000
31.684446 156.000000
31.703929 140.000000
31.723411 178.000000
31.742893 133.000000
31.762376 151.000000
31.781858 142.000000
31.801341 147.000000
31.820823 167.000000
31.840305 147.000000
31.859788 135.000000
31.879270 146.000000
31.898752 137.000000
31.918235 162.000000
31.937717 170.000000
31.957200 157.000000
31.976682 160.000000
31.996164 139.000000
32.015647 165.000000
32.035129 159.000000
32.054611 142.000000
32.074094 145.000000
32.093576 177.000000
32.113058 142.000000
32.132541 148.000000
32.152023 150.000000
32.171506 164.000000
32.190988 141.000000
32.210470 165.000000
32.229953 158.000000
32.249435 154.000000
32.268917 165.000000
32.288400 161.000000
32.307882 157.000000
32.327365 167.000000
32.346847 173.000000
32.366329 152.000000
32.385812 167.000000
32.405294 171.000000
32.424776 160.000000
32.444259 149.000000
32.463741 177.000000
32.483223 161.000000
32.502706 175.000000
32.522188 157.000000
32.541671 159.000000
32.561153 151.000000
32.580635 170.000000
32.600118 173.000000
32.619600 159.000000
32.639082 138.000000
32.658565 151.000000
32.678047 169.000000
32.697530 153.000000
32.717012 183.000000
32.736494 156.000000
32.755977 146.000000
32.775459 166.000000
32.794941 173.000000
32.814424 170.000000
32.833906 181.000000
32.853389 177.000000
32.872871 161.000000
32.892353 183.000000
32.911836 164.000000
32.931318 212.000000
32.950800 195.000000
32.970283 224.000000
32.989765 366.000000
33.009247 512.000000
33.028730 948.000000
33.048212 1347.000000
33.067695 845.000000
33.087177 428.000000
33.106659 513.000000
33.126142 754.000000
33.145624 642.000000
33.165106 333.000000
33.184589 212.000000
33.204071 165.000000
33.223554 177.000000
33.243036 157.000000
33.262518 137.000000
33.282001 179.000000
33.301483 156.000000
33.320965 156.000000
33.340448 158.000000
33.359930 164.000000
33.379412 172.000000
33.398895 144.000000
33.418377 160.000000
33.437860 170.000000
33.457342 159.000000
33.476824 168.000000
33.496307 158.000000
33.515789 152.000000
33.535271 144.000000
33.554754 149.000000
33.574236 180.000000
33.593719 148.000000
33.613201 164.000000
33.632683 145.000000
33.652166 160.000000
33.671648 162.000000
33.691130 165.000000
33.710613 144.000000
33.730095 149.000000
33.749577 141.000000
33.769060 166.000000
33.788542 178.000000
33.808025 153.000000
33.827507 151.000000
33.846989 171.000000
33.866472 170.000000
33.885954 166.000000
33.905436 136.000000
33.924919 163.000000
33.944401 165.000000
33.963884 130.000000
33.983366 136.000000
34.002848 149.000000
34.022331 154.000000
34.041813 165.000000
34.061295 151.000000
34.080778 152.000000
34.100260 173.000000
34.119742 164.000000
34.139225 149.000000
34.158707 166.000000
34.178190 172.000000
34.197672 163.000000
34.217154 162.000000
34.236637 178.000000
34.256119 165.000000
34.275601 161.000000
34.295084 149.000000
34.314566 182.000000
34.334049 156.000000
34.353531 189.000000
34.373013 141.000000
34.392496 162.000000
34.411978 151.000000
34.431460 155.000000
34.450943 149.000000
34.470425 156.000000
34.489908 132.000000
34.509390 161.000000
34.528872 166.000000
34.548355 161.000000
34.567837 154.000000
34.587319 149.000000
34.606802 155.000000
34.626284 171.000000
34.645766 163.000000
34.665249 153.000000
34.684731 153.000000
34.704214 138.000000
34.723696 183.000000
34.743178 180.000000
34.762661 166.000000
34.782143 153.000000
34.801625 140.000000
34.821108 165.000000
34.840590 149.000000
34.860073 149.000000
34.879555 162.000000
34.899037 167.000000
34.918520 134.000000
34.938002 157.000000
34.957484 174.000000
34.976967 158.000000
34.996449 152.000000
35.015931 173.000000
35.035414 153.000000
35.054896 153.000000
35.074379 155.000000
35.093861 138.000000
35.113343 151.000000
35.132826 141.000000
35.152308 135.000000
35.171790 151.000000
35.191273 150.000000
35.210755 156.000000
35.230238 161.000000
35.249720 142.000000
35.269202 169.000000
35.288685 150.000000
35.308167 162.000000
35.327649 152.000000
35.347132 170.000000
35.366614 157.000000
35.386096 156.000000
35.405579 166.000000
35.425061 164.000000
35.444544 154.000000
35.464026 168.000000
35.483508 157.000000
35.502991 148.000000
35.522473 171.000000
35.541955 158.000000
35.561438 165.000000
35.580920 157.000000
35.600403 138.000000
35.619885 135.000000
35.639367 167.000000
35.658850 174.000000
35.678332 150.000000
35.697814 169.000000
35.717297 158.000000
35.736779 141.000000
35.756261 150.000000
35.775744 142.000000
35.795226 165.000000
35.814709 146.000000
35.834191 156.000000
35.853673 158.000000
35.873156 172.000000
35.892638 160.000000
35.912120 154.000000
35.931603 176.000000
35.951085 169.000000
35.970568 169.000000
35.990050 139.000000
36.009532 154.000000
36.029015 153.000000
36.048497 150.000000
36.067979 178.000000
36.087462 168.000000
36.106944 160.000000
36.126426 178.000000
36.145909 157.000000
36.165391 147.000000
36.184874 162.000000
36.204356 142.000000
36.223838 152.000000
36.243321 160.000000
36.262803 168.000000
36.282285 170.000000
36.301768 153.000000
36.321250 157.000000
36.340733 160.000000
36.360215 132.000000
36.379697 185.000000
36.399180 155.000000
36.418662 165.000000
36.438144 154.000000
36.457627 155.000000
36.477109 151.000000
36.496592 173.000000
36.516074 163.000000
36.535556 152.000000
36.555039 159.000000
36.574521 140.000000
36.594003 170.000000
36.613486 173.000000
36.632968 153.000000
36.652450 145.000000
36.671933 180.000000
36.691415 181.000000
36.710898 156.000000
36.730380 159.000000
36.749862 167.000000
36.769345 180.000000
36.788827 191.000000
36.808309 167.000000
36.827792 178.000000
36.847274 153.000000
36.866757 179.000000
36.886239 139.000000
36.905721 154.000000
36.925204 195.000000
36.944686 184.000000
36.964168 185.000000
36.983651 181.000000
37.003133 173.000000
37.022615 251.000000
37.042098 339.000000
37.061580 462.000000
37.081063 529.000000
37.100545 349.000000
37.120027 268.000000
37.139510 266.000000
37.158992 321.000000
37.178474 287.000000
37.197957 220.000000
37.217439 188.000000
37.236922 184.000000
37.256404 170.000000
37.275886 177.000000
37.295369 155.000000
37.314851 145.000000
37.334333 166.000000
37.353816 177.000000
37.373298 138.000000
37.392780 154.000000
37.412263 165.000000
37.431745 167.000000
37.451228 156.000000
37.470710 156.000000
37.490192 175.000000
37.509675 142.000000
37.529157 170.000000
37.548639 182.000000
37.568122 184.000000
37.587604 150.000000
37.607087 158.000000
37.626569 160.000000
37.646051 161.000000
37.665534 165.000000
37.685016 152.000000
37.704498 160.000000
37.723981 159.000000
37.743463 164.000000
37.762945 140.000000
37.782428 154.000000
37.801910 155.000000
37.821393 138.000000
37.840875 179.000000
37.860357 162.000000
37.879840 163.000000
37.899322 142.000000
37.918804 145.000000
37.938287 164.000000
37.957769 158.000000
37.977252 164.000000
37.996734 179.000000
38.016216 140.000000
38.035699 173.000000
38.055181 148.000000
38.074663 139.000000
38.094146 161.000000
38.113628 132.000000
38.133111 158.000000
38.152593 173.000000
38.172075 151.000000
38.191558 162.000000
38.211040 162.000000
38.230522 163.000000
38.250005 139.000000
38.269487 167.000000
38.288969 167.000000
38.308452 157.000000
38.327934 187.000000
38.347417 166.000000
38.366899 162.000000
38.386381 158.000000
38.405864 171.000000
38.425346 156.000000
38.444828 155.000000
38.464311 149.000000
38.483793 142.000000
38.503276 174.000000
38.522758 159.000000
38.542240 153.000000
38.561723 166.000000
38.581205 175.000000
38.600687 153.000000
38.620170 159.000000
38.639652 182.000000
38.659134 164.000000
38.678617 163.000000
38.698099 156.000000
38.717582 175.000000
38.737064 145.000000
38.756546 159.000000
38.776029 133.000000
38.795511 155.000000
38.814993 165.000000
38.834476 149.000000
38.853958 161.000000
38.873441 158.000000
38.892923 164.000000
38.912405 131.000000
38.931888 161.000000
38.951370 168.000000
38.970852 158.000000
38.990335 156.000000
39.009817 192.000000
39.029299 151.000000
39.048782 168.000000
39.068264 179.000000
39.087747 179.000000
39.107229 177.000000
39.126711 162.000000
39.146194 153.000000
39.165676 169.000000
39.185158 169.000000
39.204641 146.000000
39.224123 158.000000
39.243606 168.000000
39.263088 159.000000
39.282570 146.000000
39.302053 168.000000
39.321535 161.000000
39.341017 156.000000
39.360500 150.000000
39.379982 164.000000
39.399464 191.000000
39.418947 171.000000
39.438429 160.000000
39.457912 167.000000
39.477394 155.000000
39.496876 169.000000
39.516359 163.000000
39.535841 154.000000
39.555323 140.000000
39.574806 161.000000
39.594288 169.000000
39.613771 166.000000
39.633253 148.000000
39.652735 172.000000
39.672218 159.000000
39.691700 174.000000
39.711182 152.000000
39.730665 156.000000
39.750147 158.000000
39.769630 147.000000
39.789112 160.000000
39.808594 147.000000
39.828077 148.000000
39.847559 151.000000
39.867041 156.000000
39.886524 144.000000
39.906006 162.000000
39.925488 174.000000
39.944971 161.000000
39.964453 148.000000
39.983936 163.000000
40.003418 147.000000
40.022900 179.000000
40.042383 161.000000
40.061865 188.000000
40.081347 139.000000
40.100830 153.000000
40.120312 146.000000
40.139795 172.000000
40.159277 144.000000
40.178759 179.000000
40.198242 159.000000
40.217724 143.000000
40.237206 140.000000
40.256689 149.000000
40.276171 147.000000
40.295653 188.000000
40.315136 149.000000
40.334618 139.000000
40.354101 140.000000
40.373583 167.000000
40.393065 180.000000
40.412548 168.000000
40.432030 160.000000
40.451512 165.000000
40.470995 131.000000
40.490477 163.000000
40.509960 177.000000
40.529442 153.000000
40.548924 172.000000
40.568407 182.000000
40.587889 192.000000
40.607371 176.000000
40.626854 163.000000
40.646336 194.000000
40.665818 208.000000
40.685301 182.000000
40.704783 215.000000
40.724266 301.000000
40.743748 402.000000
40.763230 606.000000
40.782713 506.000000
40.802195 296.000000
40.821677 228.000000
40.841160 288.000000
40.860642 342.000000
40.880125 378.000000
40.899607 237.000000
40.919089 186.000000
40.938572 198.000000
40.958054 184.000000
40.977536 164.000000
40.997019 192.000000
41.016501 186.000000
41.035983 153.000000
41.055466 194.000000
41.074948 167.000000
41.094431 183.000000
41.113913 155.000000
41.133395 183.000000
41.152878 180.000000
41.172360 173.000000
41.191842 172.000000
41.211325 193.000000
41.230807 170.000000
41.250290 195.000000
41.269772 165.000000
41.289254 187.000000
41.308737 173.000000
41.328219 152.000000
41.347701 144.000000
41.367184 196.000000
41.386666 166.000000
41.406149 156.000000
41.425631 151.000000
41.445113 156.000000
41.464596 168.000000
41.484078 162.000000
41.503560 151.000000
41.523043 156.000000
41.542525 170.000000
41.562007 149.000000
41.581490 156.000000
41.600972 181.000000
41.620455 191.000000
41.639937 189.000000
41.659419 157.000000
41.678902 179.000000
41.698384 156.000000
41.717866 154.000000
41.737349 149.000000
41.756831 149.000000
41.776314 174.000000
41.795796 180.000000
41.815278 160.000000
41.834761 153.000000
41.854243 178.000000
41.873725 179.000000
41.893208 167.000000
41.912690 148.000000
41.932172 170.000000
41.951655 135.000000
41.971137 173.000000
41.990620 167.000000
42.010102 165.000000
42.029584 160.000000
42.049067 186.000000
42.068549 150.000000
42.088031 184.000000
42.107514 160.000000
42.126996 134.000000
42.146479 183.000000
42.165961 177.000000
42.185443 199.000000
42.204926 176.000000
42.224408 162.000000
42.243890 162.000000
42.263373 184.000000
42.282855 163.000000
42.302337 172.000000
42.321820 163.000000
42.341302 148.000000
42.360785 167.000000
42.380267 187.000000
42.399749 167.000000
42.419232 159.000000
42.438714 160.000000
42.458196 180.000000
42.477679 150.000000
42.497161 174.000000
42.516644 172.000000
42.536126 159.000000
42.555608 171.000000
42.575091 178.000000
42.594573 170.000000
42.614055 178.000000
42.633538 178.000000
42.653020 149.000000
42.672502 170.000000
42.691985 140.000000
42.711467 158.000000
42.730950 159.000000
42.750432 166.000000
42.769914 165.000000
42.789397 156.000000
42.808879 144.000000
42.828361 168.000000
42.847844 166.000000
42.867326 169.000000
42.886809 168.000000
42.906291 146.000000
42.925773 143.000000
42.945256 182.000000
42.964738 162.000000
42.984220 161.000000
43.003703 164.000000
43.023185 162.000000
43.042667 160.000000
43.062150 165.000000
43.081632 172.000000
43.101115 163.000000
43.120597 160.000000
43.140079 175.000000
43.159562 163.000000
43.179044 146.000000
43.198526 168.000000
43.218009 164.000000
43.237491 181.000000
43.256974 171.000000
43.276456 131.000000
43.295938 166.000000
43.315421 164.000000
43.334903 155.000000
43.354385 199.000000
43.373868 156.000000
43.393350 173.000000
43.412833 181.000000
43.432315 142.000000
43.451797 168.000000
43.471280 182.000000
43.490762 153.000000
43.510244 169.000000
43.529727 173.000000
43.549209 147.000000
43.568691 164.000000
43.588174 161.000000
43.607656 185.000000
43.627139 160.000000
43.646621 191.000000
43.666103 168.000000
43.685586 168.000000
43.705068 165.000000
43.724550 157.000000
43.744033 179.000000
43.763515 171.000000
43.782998 164.000000
43.802480 182.000000
43.821962 181.000000
43.841445 171.000000
43.860927 146.000000
43.880409 169.000000
43.899892 172.000000
43.919374 165.000000
43.938856 166.000000
43.958339 188.000000
43.977821 174.000000
43.997304 158.000000
44.016786 172.000000
44.036268 158.000000
44.055751 163.000000
44.075233 164.000000
44.094715 190.000000
44.114198 159.000000
44.133680 154.000000
44.153163 172.000000
44.172645 165.000000
44.192127 147.000000
44.211610 182.000000
44.231092 149.000000
44.250574 156.000000
44.270057 158.000000
44.289539 166.000000
44.309021 175.000000
44.328504 158.000000
44.347986 159.000000
44.367469 141.000000
44.386951 162.000000
44.406433 143.000000
44.425916 139.000000
44.445398 203.000000
44.464880 147.000000
44.484363 156.000000
44.503845 175.000000
44.523328 155.000000
44.542810 157.000000
44.562292 166.000000
44.581775 165.000000
44.601257 151.000000
44.620739 169.000000
44.640222 176.000000
44.659704 189.000000
44.679186 187.000000
44.698669 170.000000
44.718151 168.000000
44.737634 164.000000
44.757116 180.000000
44.776598 145.000000
44.796081 175.000000
44.815563 156.000000
44.835045 170.000000
44.854528 179.000000
44.874010 160.000000
44.893493 156.000000
44.912975 165.000000
44.932457 172.000000
44.951940 165.000000
44.971422 156.000000
44.990904 144.000000
45.010387 163.000000
45.029869 157.000000
45.049352 146.000000
45.068834 147.000000
45.088316 154.000000
45.107799 159.000000
45.127281 152.000000
45.146763 171.000000
45.166246 158.000000
45.185728 169.000000
45.205210 170.000000
45.224693 181.000000
45.244175 173.000000
45.263658 161.000000
45.283140 174.000000
45.302622 165.000000
45.322105 163.000000
45.341587 164.000000
45.361069 179.000000
45.380552 153.000000
45.400034 170.000000
45.419517 165.000000
45.438999 179.000000
45.458481 177.000000
45.477964 157.000000
45.497446 172.000000
45.516928 179.000000
45.536411 177.000000
45.555893 151.000000
45.575375 171.000000
45.594858 177.000000
45.614340 176.000000
45.633823 170.000000
45.653305 143.000000
45.672787 157.000000
45.692270 205.000000
45.711752 175.000000
45.731234 165.000000
45.750717 162.000000
45.770199 183.000000
45.789682 150.000000
45.809164 138.000000
45.828646 183.000000
45.848129 178.000000
45.867611 153.000000
45.887093 176.000000
45.906576 126.000000
45.926058 175.000000
45.945540 166.000000
45.965023 158.000000
45.984505 174.000000
46.003988 168.000000
46.023470 187.000000
46.042952 204.000000
46.062435 160.000000
46.081917 163.000000
46.101399 172.000000
46.120882 184.000000
46.140364 158.000000
46.159847 149.000000
46.179329 170.000000
46.198811 162.000000
46.218294 156.000000
46.237776 156.000000
46.257258 159.000000
46.276741 173.000000
46.296223 157.000000
46.315705 142.000000
46.335188 159.000000
46.354670 185.000000
46.374153 163.000000
46.393635 171.000000
46.413117 173.000000
46.432600 170.000000
46.452082 155.000000
46.471564 152.000000
46.491047 166.000000
46.510529 152.000000
46.530012 171.000000
46.549494 175.000000
46.568976 165.000000
46.588459 173.000000
46.607941 163.000000
46.627423 148.000000
46.646906 176.000000
46.666388 168.000000
46.685871 155.000000
46.705353 181.000000
46.724835 176.000000
46.744318 173.000000
46.763800 160.000000
46.783282 153.000000
46.802765 154.000000
46.822247 150.000000
46.841729 168.000000
46.861212 163.000000
46.880694 183.000000
46.900177 170.000000
46.919659 155.000000
46.939141 175.000000
46.958624 163.000000
46.978106 169.000000
46.997588 170.000000
47.017071 188.000000
47.036553 164.000000
47.056036 177.000000
47.075518 164.000000
47.095000 165.000000
47.114483 192.000000
47.133965 175.000000
47.153447 163.000000
47.172930 205.000000
47.192412 170.000000
47.211894 182.000000
47.231377 186.000000
47.250859 161.000000
47.270342 182.000000
47.289824 195.000000
47.309306 163.000000
47.328789 168.000000
47.348271 196.000000
47.367753 226.000000
47.387236 248.000000
47.406718 312.000000
47.426201 414.000000
47.445683 361.000000
47.465165 235.000000
47.484648 194.000000
47.504130 212.000000
47.523612 222.000000
47.543095 298.000000
47.562577 287.000000
47.582059 206.000000
47.601542 183.000000
47.621024 169.000000
47.640507 189.000000
47.659989 187.000000
47.679471 164.000000
47.698954 158.000000
47.718436 178.000000
47.737918 183.000000
47.757401 171.000000
47.776883 185.000000
47.796366 169.000000
47.815848 184.000000
47.835330 184.000000
47.854813 176.000000
47.874295 166.000000
47.893777 154.000000
47.913260 176.000000
47.932742 169.000000
47.952224 180.000000
47.971707 187.000000
47.991189 181.000000
48.010672 161.000000
48.030154 175.000000
48.049636 153.000000
48.069119 180.000000
48.088601 180.000000
48.108083 177.000000
48.127566 187.000000
48.147048 170.000000
48.166531 161.000000
48.186013 190.000000
48.205495 180.000000
48.224978 163.000000
48.244460 174.000000
48.263942 162.000000
48.283425 145.000000
48.302907 167.000000
48.322389 153.000000
48.341872 166.000000
48.361354 177.000000
48.380837 193.000000
48.400319 142.000000
48.419801 165.000000
48.439284 164.000000
48.458766 195.000000
48.478248 162.000000
48.497731 161.000000
48.517213 163.000000
48.536696 167.000000
48.556178 166.000000
48.575660 174.000000
48.595143 154.000000
48.614625 166.000000
48.634107 181.000000
48.653590 176.000000
48.673072 173.000000
48.692555 140.000000
48.712037 161.000000
48.731519 191.000000
48.751002 175.000000
48.770484 158.000000
48.789966 172.000000
48.809449 147.000000
48.828931 185.000000
48.848413 167.000000
48.867896 155.000000
48.887378 180.000000
48.906861 155.000000
48.926343 148.000000
48.945825 179.000000
48.965308 181.000000
48.984790 162.000000
49.004272 143.000000
49.023755 167.000000
49.043237 156.000000
49.062720 171.000000
49.082202 185.000000
49.101684 134.000000
49.121167 160.000000
49.140649 170.000000
49.160131 172.000000
49.179614 139.000000
49.199096 163.000000
49.218578 172.000000
49.238061 163.000000
49.257543 167.000000
49.277026 164.000000
49.296508 160.000000
49.315990 187.000000
49.335473 155.000000
49.354955 170.000000
49.374437 168.000000
49.393920 198.000000
49.413402 147.000000
49.432885 159.000000
49.452367 166.000000
49.471849 153.000000
49.491332 185.000000
49.510814 168.000000
49.530296 160.000000
49.549779 176.000000
49.569261 159.000000
49.588743 172.000000
49.608226 172.000000
49.627708 161.000000
49.647191 178.000000
49.666673 180.000000
49.686155 157.000000
49.705638 173.000000
49.725120 177.000000
49.744602 182.000000
49.764085 195.000000
49.783567 156.000000
49.803050 154.000000
49.822532 165.000000
49.842014 176.000000
49.861497 189.000000
49.880979 163.000000
49.900461 164.000000
49.919944 156.000000
49.939426 184.000000
49.958908 179.000000
49.978391 179.000000
49.997873 182.000000
50.017356 193.000000
50.036838 170.000000
50.056320 188.000000
50.075803 171.000000
50.095285 155.000000
50.114767 188.000000
50.134250 167.000000
50.153732 165.000000
50.173215 197.000000
50.192697 176.000000
50.212179 165.000000
50.231662 187.000000
50.251144 176.000000
50.270626 186.000000
50.290109 176.000000
50.309591 189.000000
50.329074 178.000000
50.348556 156.000000
50.368038 150.000000
50.387521 175.000000
50.407003 181.000000
50.426485 184.000000
50.445968 147.000000
50.465450 201.000000
50.484932 182.000000
50.504415 160.000000
50.523897 177.000000
50.543380 152.000000
50.562862 178.000000
50.582344 181.000000
50.601827 177.000000
50.621309 181.000000
50.640791 167.000000
50.660274 186.000000
50.679756 167.000000
50.699239 144.000000
50.718721 155.000000
50.738203 171.000000
50.757686 179.000000
50.777168 174.000000
50.796650 182.000000
50.816133 174.000000
50.835615 168.000000
50.855097 166.000000
50.874580 172.000000
50.894062 150.000000
50.913545 175.000000
50.933027 164.000000
50.952509 173.000000
50.971992 193.000000
50.991474 162.000000
51.010956 183.000000
51.030439 176.000000
51.049921 195.000000
51.069404 194.000000
51.088886 177.000000
51.108368 162.000000
51.127851 157.000000
51.147333 176.000000
51.166815 156.000000
51.186298 171.000000
51.205780 167.000000
51.225262 185.000000
51.244745 168.000000
51.264227 157.000000
51.283710 173.000000
51.303192 171.000000
51.322674 176.000000
51.342157 162.000000
51.361639 172.000000
51.381121 178.000000
51.400604 177.000000
51.420086 173.000000
51.439569 160.000000
51.459051 180.000000
51.478533 162.000000
51.498016 146.000000
51.517498 191.000000
51.536980 192.000000
51.556463 168.000000
51.575945 187.000000
51.595427 170.000000
51.614910 148.000000
51.634392 157.000000
51.653875 186.000000
51.673357 177.000000
51.692839 175.000000
51.712322 180.000000
51.731804 152.000000
51.751286 170.000000
51.770769 162.000000
51.790251 165.000000
51.809734 173.000000
51.829216 183.000000
51.848698 170.000000
51.868181 176.000000
51.887663 174.000000
51.907145 167.000000
51.926628 154.000000
51.946110 157.000000
51.965593 163.000000
51.985075 180.000000
52.004557 171.000000
52.024040 150.000000
52.043522 169.000000
52.063004 173.000000
52.082487 169.000000
52.101969 174.000000
52.121451 158.000000
52.140934 191.000000
52.160416 174.000000
52.179899 181.000000
52.199381 173.000000
52.218863 149.000000
52.238346 177.000000
52.257828 167.000000
52.277310 172.000000
52.296793 185.000000
52.316275 185.000000
52.335758 156.000000
52.355240 173.000000
52.374722 177.000000
52.394205 187.000000
52.413687 176.000000
52.433169 171.000000
52.452652 169.000000
52.472134 159.000000
52.491616 176.000000
52.511099 194.000000
52.530581 188.000000
52.550064 180.000000
52.569546 181.000000
52.589028 187.000000
52.608511 157.000000
52.627993 148.000000
52.647475 155.000000
52.666958 196.000000
52.686440 171.000000
52.705923 153.000000
52.725405 173.000000
52.744887 154.000000
52.764370 191.000000
52.783852 170.000000
52.803334 161.000000
52.822817 173.000000
52.842299 163.000000
52.861781 174.000000
52.881264 176.000000
52.900746 188.000000
52.920229 178.000000
52.939711 181.000000
52.959193 168.000000
52.978676 168.000000
52.998158 178.000000
53.017640 177.000000
53.037123 166.000000
53.056605 182.000000
53.076088 157.000000
53.095570 200.000000
53.115052 174.000000
53.134535 175.000000
53.154017 179.000000
53.173499 184.000000
53.192982 152.000000
53.212464 167.000000
53.231946 158.000000
53.251429 165.000000
53.270911 183.000000
53.290394 180.000000
53.309876 202.000000
53.329358 178.000000
53.348841 170.000000
53.368323 167.000000
53.387805 154.000000
53.407288 173.000000
53.426770 159.000000
53.446253 178.000000
53.465735 205.000000
53.485217 192.000000
53.504700 189.000000
53.524182 194.000000
53.543664 180.000000
53.563147 181.000000
53.582629 200.000000
53.602112 173.000000
53.621594 184.000000
53.641076 175.000000
53.660559 164.000000
53.680041 169.000000
53.699523 156.000000
53.719006 180.000000
53.738488 193.000000
53.757970 175.000000
53.777453 192.000000
53.796935 152.000000
53.816418 171.000000
53.835900 154.000000
53.855382 152.000000
53.874865 176.000000
53.894347 156.000000
53.913829 163.000000
53.933312 176.000000
53.952794 170.000000
53.972277 166.000000
53.991759 164.000000
54.011241 169.000000
54.030724 170.000000
54.050206 188.000000
54.069688 192.000000
54.089171 160.000000
54.108653 161.000000
54.128135 159.000000
54.147618 172.000000
54.167100 175.000000
54.186583 167.000000
54.206065 199.000000
54.225547 169.000000
54.245030 170.000000
54.264512 185.000000
54.283994 179.000000
54.303477 158.000000
54.322959 154.000000
54.342442 170.000000
54.361924 162.000000
54.381406 147.000000
54.400889 161.000000
54.420371 162.000000
54.439853 185.000000
54.459336 182.000000
54.478818 176.000000
54.498300 181.000000
54.517783 181.000000
54.537265 155.000000
54.556748 202.000000
54.576230 186.000000
54.595712 167.000000
54.615195 172.000000
54.634677 168.000000
54.654159 160.000000
54.673642 190.000000
54.693124 154.000000
54.712607 180.000000
54.732089 186.000000
54.751571 164.000000
54.771054 171.000000
54.790536 170.000000
54.810018 175.000000
54.829501 141.000000
54.848983 180.000000
54.868465 183.000000
54.887948 161.000000
54.907430 160.000000
54.926913 179.000000
54.946395 165.000000
54.965877 197.000000
54.985360 174.000000
55.004842 168.000000
55.024324 170.000000
55.043807 182.000000
55.063289 185.000000
55.082772 182.000000
55.102254 172.000000
55.121736 168.000000
55.141219 173.000000
55.160701 176.000000
55.180183 199.000000
55.199666 180.000000
55.219148 162.000000
55.238630 179.000000
55.258113 153.000000
55.277595 205.000000
55.297078 167.000000
55.316560 184.000000
55.336042 176.000000
55.355525 176.000000
55.375007 184.000000
55.394489 197.000000
55.413972 155.000000
55.433454 159.000000
55.452937 185.000000
55.472419 150.000000
55.491901 170.000000
55.511384 179.000000
55.530866 156.000000
55.550348 172.000000
55.569831 197.000000
55.589313 182.000000
55.608796 174.000000
55.628278 168.000000
55.647760 187.000000
55.667243 185.000000
55.686725 183.000000
55.706207 196.000000
55.725690 188.000000
55.745172 165.000000
55.764654 164.000000
55.784137 201.000000
55.803619 189.000000
55.823102 175.000000
55.842584 177.000000
55.862066 209.000000
55.881549 179.000000
55.901031 179.000000
55.920513 171.000000
55.939996 150.000000
55.959478 180.000000
55.978961 170.000000
55.998443 207.000000
56.017925 189.000000
56.037408 165.000000
56.056890 183.000000
56.076372 170.000000
56.095855 193.000000
56.115337 198.000000
56.134819 185.000000
56.154302 184.000000
56.173784 243.000000
56.193267 257.000000
56.212749 340.000000
56.232231 487.000000
56.251714 736.000000
56.271196 765.000000
56.290678 656.000000
56.310161 447.000000
56.329643 322.000000
56.349126 270.000000
56.368608 282.000000
56.388090 355.000000
56.407573 468.000000
56.427055 476.000000
56.446537 417.000000
56.466020 285.000000
56.485502 236.000000
56.504984 212.000000
56.524467 206.000000
56.543949 211.000000
56.563432 182.000000
56.582914 191.000000
56.602396 179.000000
56.621879 181.000000
56.641361 170.000000
56.660843 195.000000
56.680326 183.000000
56.699808 179.000000
56.719291 176.000000
56.738773 196.000000
56.758255 177.000000
56.777738 187.000000
56.797220 174.000000
56.816702 187.000000
56.836185 186.000000
56.855667 158.000000
56.875149 196.000000
56.894632 185.000000
56.914114 169.000000
56.933597 181.000000
56.953079 202.000000
56.972561 190.000000
56.992044 158.000000
57.011526 213.000000
57.031008 172.000000
57.050491 188.000000
57.069973 167.000000
57.089456 174.000000
57.108938 174.000000
57.128420 197.000000
57.147903 180.000000
57.167385 196.000000
57.186867 190.000000
57.206350 163.000000
57.225832 175.000000
57.245315 197.000000
57.264797 185.000000
57.284279 188.000000
57.303762 189.000000
57.323244 174.000000
57.342726 184.000000
57.362209 173.000000
57.381691 176.000000
57.401173 165.000000
57.420656 170.000000
57.440138 200.000000
57.459621 187.000000
57.479103 194.000000
57.498585 172.000000
57.518068 160.000000
57.537550 162.000000
57.557032 169.000000
57.576515 169.000000
57.595997 191.000000
57.615480 172.000000
57.634962 196.000000
57.654444 199.000000
57.673927 188.000000
57.693409 153.000000
57.712891 172.000000
57.732374 172.000000
57.751856 162.000000
57.771338 160.000000
57.790821 197.000000
57.810303 175.000000
57.829786 161.000000
57.849268 170.000000
57.868750 165.000000
57.888233 181.000000
57.907715 181.000000
57.927197 160.000000
57.946680 178.000000
57.966162 196.000000
57.985645 194.000000
58.005127 179.000000
58.024609 179.000000
58.044092 150.000000
58.063574 158.000000
58.083056 170.000000
58.102539 170.000000
58.122021 168.000000
58.141503 194.000000
58.160986 191.000000
58.180468 194.000000
58.199951 184.000000
58.219433 173.000000
58.238915 187.000000
58.258398 192.000000
58.277880 181.000000
58.297362 176.000000
58.316845 189.000000
58.336327 169.000000
58.355810 163.000000
58.375292 180.000000
58.394774 174.000000
58.414257 178.000000
58.433739 170.000000
58.453221 203.000000
58.472704 173.000000
58.492186 195.000000
58.511668 181.000000
58.531151 173.000000
58.550633 184.000000
58.570116 180.000000
58.589598 176.000000
58.609080 155.000000
58.628563 165.000000
58.648045 170.000000
58.667527 158.000000
58.687010 178.000000
58.706492 187.000000
58.725975 196.000000
58.745457 176.000000
58.764939 170.000000
58.784422 175.000000
58.803904 180.000000
58.823386 170.000000
58.842869 181.000000
58.862351 182.000000
58.881834 166.000000
58.901316 163.000000
58.920798 174.000000
58.940281 181.000000
58.959763 239.000000
58.979245 234.000000
58.998728 224.000000
59.018210 270.000000
59.037692 248.000000
59.057175 180.000000
59.076657 212.000000
59.096140 218.000000
59.115622 204.000000
59.135104 186.000000
59.154587 222.000000
59.174069 191.000000
59.193551 200.000000
59.213034 205.000000
59.232516 172.000000
59.251999 196.000000
59.271481 172.000000
59.290963 175.000000
59.310446 209.000000
59.329928 188.000000
59.349410 176.000000
59.368893 184.000000
59.388375 162.000000
59.407857 184.000000
59.427340 194.000000
59.446822 178.000000
59.466305 179.000000
59.485787 193.000000
59.505269 173.000000
59.524752 171.000000
59.544234 184.000000
59.563716 156.000000
59.583199 178.000000
59.602681 206.000000
59.622164 155.000000
59.641646 164.000000
59.661128 181.000000
59.680611 174.000000
59.700093 156.000000
59.719575 187.000000
59.739058 218.000000
59.758540 179.000000
59.778022 158.000000
59.797505 181.000000
59.816987 188.000000
59.836470 168.000000
59.855952 175.000000
59.875434 185.000000
59.894917 188.000000
59.914399 182.000000
59.933881 191.000000
59.953364 155.000000
59.972846 198.000000
59.992329 196.000000
60.011811 165.000000
60.031293 164.000000
60.050776 176.000000
60.070258 174.000000
60.089740 176.000000
60.109223 188.000000
60.128705 172.000000
60.148187 157.000000
60.167670 197.000000
60.187152 153.000000
60.206635 169.000000
60.226117 140.000000
60.245599 177.000000
60.265082 175.000000
60.284564 193.000000
60.304046 164.000000
60.323529 175.000000
60.343011 177.000000
60.362494 173.000000
60.381976 162.000000
60.401458 187.000000
60.420941 182.000000
60.440423 178.000000
60.459905 184.000000
60.479388 190.000000
60.498870 164.000000
60.518352 190.000000
60.537835 182.000000
60.557317 179.000000
60.576800 172.000000
60.596282 171.000000
60.615764 187.000000
60.635247 183.000000
60.654729 189.000000
60.674211 140.000000
60.693694 177.000000
60.713176 154.000000
60.732659 197.000000
60.752141 197.000000
60.771623 155.000000
60.791106 181.000000
60.810588 143.000000
60.830070 180.000000
60.849553 186.000000
60.869035 181.000000
60.888518 186.000000
60.908000 177.000000
60.927482 181.000000
60.946965 169.000000
60.966447 179.000000
60.985929 184.000000
61.005412 178.000000
61.024894 166.000000
61.044376 177.000000
61.063859 194.000000
61.083341 162.000000
61.102824 208.000000
61.122306 184.000000
61.141788 169.000000
61.161271 187.000000
61.180753 170.000000
61.200235 192.000000
61.219718 160.000000
61.239200 175.000000
61.258683 186.000000
61.278165 189.000000
61.297647 189.000000
61.317130 192.000000
61.336612 173.000000
61.356094 185.000000
61.375577 157.000000
61.395059 183.000000
61.414541 156.000000
61.434024 165.000000
61.453506 178.000000
61.472989 182.000000
61.492471 182.000000
61.511953 167.000000
61.531436 182.000000
61.550918 170.000000
61.570400 177.000000
61.589883 178.000000
61.609365 195.000000
61.628848 216.000000
61.648330 225.000000
61.667812 302.000000
61.687295 332.000000
61.706777 293.000000
61.726259 222.000000
61.745742 190.000000
61.765224 194.000000
61.784706 202.000000
61.804189 194.000000
61.823671 203.000000
61.843154 261.000000
61.862636 241.000000
61.882118 215.000000
61.901601 194.000000
61.921083 187.000000
61.940565 158.000000
61.960048 148.000000
61.979530 190.000000
61.999013 174.000000
62.018495 170.000000
62.037977 162.000000
62.057460 177.000000
62.076942 193.000000
62.096424 192.000000
62.115907 185.000000
62.135389 161.000000
62.154871 178.000000
62.174354 183.000000
62.193836 178.000000
62.213319 181.000000
62.232801 180.000000
62.252283 160.000000
62.271766 167.000000
62.291248 183.000000
62.310730 192.000000
62.330213 185.000000
62.349695 187.000000
62.369178 169.000000
62.388660 194.000000
62.408142 182.000000
62.427625 174.000000
62.447107 173.000000
62.466589 202.000000
62.486072 188.000000
62.505554 164.000000
62.525037 180.000000
62.544519 174.000000
62.564001 168.000000
62.583484 180.000000
62.602966 179.000000
62.622448 168.000000
62.641931 192.000000
62.661413 179.000000
62.680895 168.000000
62.700378 195.000000
62.719860 170.000000
62.739343 158.000000
62.758825 178.000000
62.778307 177.000000
62.797790 197.000000
62.817272 180.000000
62.836754 174.000000
62.856237 153.000000
62.875719 188.000000
62.895202 172.000000
62.914684 156.000000
62.934166 180.000000
62.953649 195.000000
62.973131 185.000000
62.992613 199.000000
63.012096 209.000000
63.031578 175.000000
63.051060 174.000000
63.070543 168.000000
63.090025 198.000000
63.109508 181.000000
63.128990 190.000000
63.148472 187.000000
63.167955 152.000000
63.187437 176.000000
63.206919 196.000000
63.226402 180.000000
63.245884 165.000000
63.265367 177.000000
63.284849 173.000000
63.304331 165.000000
63.323814 189.000000
63.343296 181.000000
63.362778 197.000000
63.382261 171.000000
63.401743 194.000000
63.421225 172.000000
63.440708 183.000000
63.460190 169.000000
63.479673 178.000000
63.499155 209.000000
63.518637 182.000000
63.538120 206.000000
63.557602 174.000000
63.577084 192.000000
63.596567 179.000000
63.616049 177.000000
63.635532 162.000000
63.655014 181.000000
63.674496 208.000000
63.693979 177.000000
63.713461 191.000000
63.732943 169.000000
63.752426 184.000000
63.771908 167.000000
63.791390 148.000000
63.810873 188.000000
63.830355 162.000000
63.849838 194.000000
63.869320 165.000000
63.888802 176.000000
63.908285 185.000000
63.927767 176.000000
63.947249 195.000000
63.966732 170.000000
63.986214 207.000000
64.005697 166.000000
64.025179 175.000000
64.044661 177.000000
64.064144 164.000000
64.083626 166.000000
64.103108 184.000000
64.122591 164.000000
64.142073 191.000000
64.161556 195.000000
64.181038 174.000000
64.200520 198.000000
64.220003 267.000000
64.239485 258.000000
64.258967 301.000000
64.278450 344.000000
64.297932 375.000000
64.317414 322.000000
64.336897 222.000000
64.356379 203.000000
64.375862 200.000000
64.395344 184.000000
64.414826 200.000000
64.434309 263.000000
64.453791 227.000000
64.473273 287.000000
64.492756 265.000000
64.512238 196.000000
64.531721 212.000000
64.551203 200.000000
64.570685 191.000000
64.590168 200.000000
64.609650 179.000000
64.629132 189.000000
64.648615 191.000000
64.668097 173.000000
64.687579 166.000000
64.707062 214.000000
64.726544 182.000000
64.746027 192.000000
64.765509 188.000000
64.784991 169.000000
64.804474 187.000000
64.823956 195.000000
64.843438 190.000000
64.862921 184.000000
64.882403 166.000000
64.901886 188.000000
64.921368 180.000000
64.940850 195.000000
64.960333 183.000000
64.979815 169.000000
64.999297 182.000000
65.018780 174.000000
65.038262 186.000000
65.057744 172.000000
65.077227 178.000000
65.096709 196.000000
65.116192 184.000000
65.135674 190.000000
65.155156 183.000000
65.174639 173.000000
65.194121 177.000000
65.213603 169.000000
65.233086 181.000000
65.252568 199.000000
65.272051 166.000000
65.291533 191.000000
65.311015 180.000000
65.330498 167.000000
65.349980 192.000000
65.369462 183.000000
65.388945 192.000000
65.408427 185.000000
65.427909 163.000000
65.447392 184.000000
65.466874 169.000000
65.486357 190.000000
65.505839 173.000000
65.525321 189.000000
65.544804 181.000000
65.564286 186.000000
65.583768 185.000000
65.603251 161.000000
65.622733 153.000000
65.642216 191.000000
65.661698 208.000000
65.681180 176.000000
65.700663 178.000000
65.720145 186.000000
65.739627 187.000000
65.759110 184.000000
65.778592 193.000000
65.798075 166.000000
65.817557 176.000000
65.837039 180.000000
65.856522 168.000000
65.876004 178.000000
65.895486 163.000000
65.914969 176.000000
65.934451 160.000000
65.953933 179.000000
65.973416 196.000000
65.992898 182.000000
66.012381 181.000000
66.031863 177.000000
66.051345 191.000000
66.070828 182.000000
66.090310 178.000000
66.109792 162.000000
66.129275 177.000000
66.148757 169.000000
66.168240 171.000000
66.187722 158.000000
66.207204 196.000000
66.226687 196.000000
66.246169 195.000000
66.265651 200.000000
66.285134 181.000000
66.304616 194.000000
66.324098 169.000000
66.343581 183.000000
66.363063 216.000000
66.382546 196.000000
66.402028 196.000000
66.421510 171.000000
66.440993 192.000000
66.460475 189.000000
66.479957 182.000000
66.499440 194.000000
66.518922 175.000000
66.538405 200.000000
66.557887 184.000000
66.577369 174.000000
66.596852 192.000000
66.616334 192.000000
66.635816 157.000000
66.655299 191.000000
66.674781 158.000000
66.694263 161.000000
66.713746 183.000000
66.733228 190.000000
66.752711 175.000000
66.772193 186.000000
66.791675 191.000000
66.811158 184.000000
66.830640 207.000000
66.850122 175.000000
66.869605 212.000000
66.889087 193.000000
66.908570 178.000000
66.928052 187.000000
66.947534 177.000000
66.967017 162.000000
66.986499 184.000000
67.005981 171.000000
67.025464 177.000000
67.044946 162.000000
67.064428 176.000000
67.083911 173.000000
67.103393 172.000000
67.122876 180.000000
67.142358 191.000000
67.161840 199.000000
67.181323 173.000000
67.200805 195.000000
67.220287 197.000000
67.239770 190.000000
67.259252 197.000000
67.278735 185.000000
67.298217 189.000000
67.317699 184.000000
67.337182 183.000000
67.356664 174.000000
67.376146 180.000000
67.395629 225.000000
67.415111 180.000000
67.434593 169.000000
67.454076 164.000000
67.473558 166.000000
67.493041 180.000000
67.512523 177.000000
67.532005 198.000000
67.551488 167.000000
67.570970 202.000000
67.590452 183.000000
67.609935 175.000000
67.629417 165.000000
67.648900 182.000000
67.668382 197.000000
67.687864 178.000000
67.707347 185.000000
67.726829 187.000000
67.746311 179.000000
67.765794 166.000000
67.785276 192.000000
67.804759 179.000000
67.824241 170.000000
67.843723 184.000000
67.863206 209.000000
67.882688 190.000000
67.902170 177.000000
67.921653 187.000000
67.941135 178.000000
67.960617 170.000000
67.980100 182.000000
67.999582 194.000000
68.019065 170.000000
68.038547 189.000000
68.058029 174.000000
68.077512 175.000000
68.096994 164.000000
68.116476 185.000000
68.135959 165.000000
68.155441 172.000000
68.174924 192.000000
68.194406 192.000000
68.213888 176.000000
68.233371 192.000000
68.252853 164.000000
68.272335 200.000000
68.291818 185.000000
68.311300 174.000000
68.330782 182.000000
68.350265 176.000000
68.369747 172.000000
68.389230 210.000000
68.408712 174.000000
68.428194 191.000000
68.447677 176.000000
68.467159 176.000000
68.486641 184.000000
68.506124 186.000000
68.525606 196.000000
68.545089 176.000000
68.564571 159.000000
68.584053 178.000000
68.603536 182.000000
68.623018 199.000000
68.642500 171.000000
68.661983 178.000000
68.681465 180.000000
68.700947 167.000000
68.720430 190.000000
68.739912 171.000000
68.759395 180.000000
68.778877 178.000000
68.798359 187.000000
68.817842 187.000000
68.837324 173.000000
68.856806 182.000000
68.876289 182.000000
68.895771 180.000000
68.915254 183.000000
68.934736 154.000000
68.954218 203.000000
68.973701 186.000000
68.993183 191.000000
69.012665 178.000000
69.032148 180.000000
69.051630 203.000000
69.071112 161.000000
69.090595 188.000000
69.110077 174.000000
69.129560 186.000000
69.149042 195.000000
69.168524 195.000000
69.188007 204.000000
69.207489 175.000000
69.226971 162.000000
69.246454 167.000000
69.265936 202.000000
69.285419 209.000000
69.304901 201.000000
69.324383 187.000000
69.343866 212.000000
69.363348 179.000000
69.382830 186.000000
69.402313 179.000000
69.421795 171.000000
69.441278 196.000000
69.460760 171.000000
69.480242 183.000000
69.499725 220.000000
69.519207 168.000000
69.538689 199.000000
69.558172 197.000000
69.577654 196.000000
69.597136 181.000000
69.616619 194.000000
69.636101 177.000000
69.655584 174.000000
69.675066 201.000000
69.694548 182.000000
69.714031 190.000000
69.733513 205.000000
69.752995 197.000000
69.772478 191.000000
69.791960 169.000000
69.811443 183.000000
69.830925 186.000000
69.850407 175.000000
69.869890 193.000000
69.889372 184.000000
69.908854 182.000000
69.928337 188.000000
69.947819 170.000000
69.967301 169.000000
69.986784 193.000000
70.006266 187.000000
70.025749 164.000000
