4.000000 400.000000
4.019482 350.000000
4.038965 346.000000
4.058447 362.000000
4.077929 345.000000
4.097412 344.000000
4.116894 353.000000
4.136377 355.000000
4.155859 323.000000
4.175341 350.000000
4.194824 326.000000
4.214306 292.000000
4.233788 317.000000
4.253271 320.000000
4.272753 330.000000
4.292236 311.000000
4.311718 312.000000
4.331200 310.000000
4.350683 341.000000
4.370165 318.000000
4.389647 285.000000
4.409130 297.000000
4.428612 317.000000
4.448094 251.000000
4.467577 288.000000
4.487059 291.000000
4.506542 299.000000
4.526024 288.000000
4.545506 283.000000
4.564989 296.000000
4.584471 276.000000
4.603953 293.000000
4.623436 305.000000
4.642918 288.000000
4.662401 280.000000
4.681883 296.000000
4.701365 300.000000
4.720848 291.000000
4.740330 290.000000
4.759812 250.000000
4.779295 299.000000
4.798777 268.000000
4.818259 285.000000
4.837742 281.000000
4.857224 296.000000
4.876707 262.000000
4.896189 280.000000
4.915671 286.000000
4.935154 298.000000
4.954636 295.000000
4.974118 283.000000
4.993601 285.000000
5.013083 240.000000
5.032566 249.000000
5.052048 267.000000
5.071530 295.000000
5.091013 250.000000
5.110495 272.000000
5.129977 266.000000
5.149460 298.000000
5.168942 301.000000
5.188425 266.000000
5.207907 258.000000
5.227389 268.000000
5.246872 253.000000
5.266354 274.000000
5.285836 273.000000
5.305319 264.000000
5.324801 252.000000
5.344283 244.000000
5.363766 265.000000
5.383248 278.000000
5.402731 261.000000
5.422213 288.000000
5.441695 287.000000
5.461178 253.000000
5.480660 246.000000
5.500142 251.000000
5.519625 264.000000
5.539107 252.000000
5.558590 259.000000
5.578072 268.000000
5.597554 274.000000
5.617037 254.000000
5.636519 271.000000
5.656001 264.000000
5.675484 314.000000
5.694966 278.000000
5.714448 289.000000
5.733931 291.000000
5.753413 278.000000
5.772896 324.000000
5.792378 290.000000
5.811860 356.000000
5.831343 389.000000
5.850825 388.000000
5.870307 364.000000
5.889790 339.000000
5.909272 357.000000
5.928755 338.000000
5.948237 324.000000
5.967719 311.000000
5.987202 323.000000
6.006684 304.000000
6.026166 270.000000
6.045649 298.000000
6.065131 281.000000
6.084613 309.000000
6.104096 254.000000
6.123578 266.000000
6.143061 279.000000
6.162543 263.000000
6.182025 311.000000
6.201508 298.000000
6.220990 299.000000
6.240472 313.000000
6.259955 287.000000
6.279437 280.000000
6.298920 260.000000
6.318402 224.000000
6.337884 251.000000
6.357367 270.000000
6.376849 262.000000
6.396331 262.000000
6.415814 246.000000
6.435296 259.000000
6.454778 259.000000
6.474261 262.000000
6.493743 242.000000
6.513226 235.000000
6.532708 256.000000
6.552190 268.000000
6.571673 265.000000
6.591155 277.000000
6.610637 251.000000
6.630120 261.000000
6.649602 270.000000
6.669085 266.000000
6.688567 249.000000
6.708049 258.000000
6.727532 250.000000
6.747014 275.000000
6.766496 235.000000
6.785979 257.000000
6.805461 232.000000
6.824944 244.000000
6.844426 259.000000
6.863908 261.000000
6.883391 246.000000
6.902873 245.000000
6.922355 231.000000
6.941838 255.000000
6.961320 239.000000
6.980802 269.000000
7.000285 240.000000
7.019767 259.000000
7.039250 238.000000
7.058732 271.000000
7.078214 202.000000
7.097697 252.000000
7.117179 260.000000
7.136661 255.000000
7.156144 245.000000
7.175626 254.000000
7.195109 249.000000
7.214591 239.000000
7.234073 232.000000
7.253556 234.000000
7.273038 264.000000
7.292520 224.000000
7.312003 237.000000
7.331485 225.000000
7.350967 225.000000
7.370450 246.000000
7.389932 247.000000
7.409415 243.000000
7.428897 219.000000
7.448379 233.000000
7.467862 238.000000
7.487344 251.000000
7.506826 239.000000
7.526309 230.000000
7.545791 245.000000
7.565274 241.000000
7.584756 206.000000
7.604238 237.000000
7.623721 224.000000
7.643203 231.000000
7.662685 246.000000
7.682168 249.000000
7.701650 219.000000
7.721132 228.000000
7.740615 256.000000
7.760097 237.000000
7.779580 247.000000
7.799062 210.000000
7.818544 245.000000
7.838027 218.000000
7.857509 261.000000
7.876991 233.000000
7.896474 269.000000
7.915956 247.000000
7.935439 242.000000
7.954921 244.000000
7.974403 220.000000
7.993886 208.000000
8.013368 239.000000
8.032850 228.000000
8.052333 232.000000
8.071815 232.000000
8.091297 239.000000
8.110780 256.000000
8.130262 251.000000
8.149745 232.000000
8.169227 248.000000
8.188709 240.000000
8.208192 235.000000
8.227674 241.000000
8.247156 214.000000
8.266639 258.000000
8.286121 241.000000
8.305604 230.000000
8.325086 215.000000
8.344568 244.000000
8.364051 224.000000
8.383533 233.000000
8.403015 225.000000
8.422498 218.000000
8.441980 234.000000
8.461463 248.000000
8.480945 229.000000
8.500427 235.000000
8.519910 236.000000
8.539392 230.000000
8.558874 247.000000
8.578357 250.000000
8.597839 253.000000
8.617321 263.000000
8.636804 247.000000
8.656286 240.000000
8.675769 230.000000
8.695251 229.000000
8.714733 245.000000
8.734216 216.000000
8.753698 253.000000
8.773180 237.000000
8.792663 233.000000
8.812145 226.000000
8.831628 223.000000
8.851110 247.000000
8.870592 223.000000
8.890075 258.000000
8.909557 218.000000
8.929039 252.000000
8.948522 270.000000
8.968004 245.000000
8.987486 248.000000
9.006969 255.000000
9.026451 221.000000
9.045934 225.000000
9.065416 227.000000
9.084898 261.000000
9.104381 259.000000
9.123863 231.000000
9.143345 234.000000
9.162828 249.000000
9.182310 236.000000
9.201793 228.000000
9.221275 227.000000
9.240757 250.000000
9.260240 236.000000
9.279722 250.000000
9.299204 245.000000
9.318687 245.000000
9.338169 256.000000
9.357651 254.000000
9.377134 271.000000
9.396616 270.000000
9.416099 282.000000
9.435581 325.000000
9.455063 349.000000
9.474546 318.000000
9.494028 288.000000
9.513510 259.000000
9.532993 237.000000
9.552475 224.000000
9.571958 242.000000
9.591440 240.000000
9.610922 239.000000
9.630405 287.000000
9.649887 258.000000
9.669369 215.000000
9.688852 231.000000
9.708334 240.000000
9.727816 249.000000
9.747299 227.000000
9.766781 234.000000
9.786264 230.000000
9.805746 241.000000
9.825228 228.000000
9.844711 245.000000
9.864193 231.000000
9.883675 224.000000
9.903158 258.000000
9.922640 228.000000
9.942123 228.000000
9.961605 229.000000
9.981087 259.000000
10.000570 231.000000
10.020052 265.000000
10.039534 239.000000
10.059017 251.000000
10.078499 228.000000
10.097982 243.000000
10.117464 235.000000
10.136946 228.000000
10.156429 232.000000
10.175911 251.000000
10.195393 227.000000
10.214876 223.000000
10.234358 262.000000
10.253840 244.000000
10.273323 241.000000
10.292805 258.000000
10.312288 240.000000
10.331770 272.000000
10.351252 244.000000
10.370735 225.000000
10.390217 240.000000
10.409699 257.000000
10.429182 236.000000
10.448664 251.000000
10.468147 235.000000
10.487629 246.000000
10.507111 288.000000
10.526594 235.000000
10.546076 268.000000
10.565558 240.000000
10.585041 232.000000
10.604523 216.000000
10.624005 235.000000
10.643488 210.000000
10.662970 224.000000
10.682453 228.000000
10.701935 242.000000
10.721417 223.000000
10.740900 248.000000
10.760382 232.000000
10.779864 219.000000
10.799347 215.000000
10.818829 237.000000
10.838312 231.000000
10.857794 239.000000
10.877276 213.000000
10.896759 220.000000
10.916241 232.000000
10.935723 232.000000
10.955206 231.000000
10.974688 218.000000
10.994170 232.000000
11.013653 230.000000
11.033135 247.000000
11.052618 239.000000
11.072100 246.000000
11.091582 222.000000
11.111065 242.000000
11.130547 230.000000
11.150029 224.000000
11.169512 232.000000
11.188994 239.000000
11.208477 230.000000
11.227959 234.000000
11.247441 234.000000
11.266924 234.000000
11.286406 230.000000
11.305888 218.000000
11.325371 247.000000
11.344853 238.000000
11.364335 231.000000
11.383818 213.000000
11.403300 205.000000
11.422783 215.000000
11.442265 230.000000
11.461747 215.000000
11.481230 211.000000
11.500712 219.000000
11.520194 240.000000
11.539677 241.000000
11.559159 197.000000
11.578642 233.000000
11.598124 207.000000
11.617606 220.000000
11.637089 222.000000
11.656571 242.000000
11.676053 204.000000
11.695536 225.000000
11.715018 254.000000
11.734500 215.000000
11.753983 246.000000
11.773465 226.000000
11.792948 253.000000
11.812430 232.000000
11.831912 213.000000
11.851395 238.000000
11.870877 230.000000
11.890359 231.000000
11.909842 208.000000
11.929324 256.000000
11.948807 226.000000
11.968289 215.000000
11.987771 233.000000
12.007254 204.000000
12.026736 242.000000
12.046218 226.000000
12.065701 210.000000
12.085183 226.000000
12.104666 248.000000
12.124148 228.000000
12.143630 240.000000
12.163113 254.000000
12.182595 233.000000
12.202077 236.000000
12.221560 232.000000
12.241042 250.000000
12.260524 191.000000
12.280007 246.000000
12.299489 235.000000
12.318972 237.000000
12.338454 266.000000
12.357936 255.000000
12.377419 270.000000
12.396901 284.000000
12.416383 274.000000
12.435866 283.000000
12.455348 282.000000
12.474831 320.000000
12.494313 266.000000
12.513795 238.000000
12.533278 249.000000
12.552760 249.000000
12.572242 250.000000
12.591725 254.000000
12.611207 228.000000
12.630689 253.000000
12.650172 254.000000
12.669654 217.000000
12.689137 267.000000
12.708619 217.000000
12.728101 231.000000
12.747584 251.000000
12.767066 231.000000
12.786548 227.000000
12.806031 217.000000
12.825513 254.000000
12.844996 225.000000
12.864478 210.000000
12.883960 251.000000
12.903443 227.000000
12.922925 261.000000
12.942407 222.000000
12.961890 248.000000
12.981372 235.000000
13.000854 232.000000
13.020337 226.000000
13.039819 239.000000
13.059302 224.000000
13.078784 214.000000
13.098266 244.000000
13.117749 216.000000
13.137231 252.000000
13.156713 277.000000
13.176196 244.000000
13.195678 259.000000
13.215161 270.000000
13.234643 226.000000
13.254125 249.000000
13.273608 224.000000
13.293090 236.000000
13.312572 203.000000
13.332055 209.000000
13.351537 241.000000
13.371019 233.000000
13.390502 224.000000
13.409984 234.000000
13.429467 215.000000
13.448949 255.000000
13.468431 213.000000
13.487914 229.000000
13.507396 221.000000
13.526878 241.000000
13.546361 233.000000
13.565843 226.000000
13.585326 242.000000
13.604808 213.000000
13.624290 243.000000
13.643773 237.000000
13.663255 216.000000
13.682737 253.000000
13.702220 248.000000
13.721702 248.000000
13.741185 228.000000
13.760667 234.000000
13.780149 226.000000
13.799632 242.000000
13.819114 213.000000
13.838596 254.000000
13.858079 244.000000
13.877561 219.000000
13.897043 216.000000
13.916526 248.000000
13.936008 231.000000
13.955491 253.000000
13.974973 226.000000
13.994455 217.000000
14.013938 228.000000
14.033420 224.000000
14.052902 233.000000
14.072385 240.000000
14.091867 224.000000
14.111350 205.000000
14.130832 238.000000
14.150314 281.000000
14.169797 220.000000
14.189279 228.000000
14.208761 246.000000
14.228244 236.000000
14.247726 227.000000
14.267208 245.000000
14.286691 196.000000
14.306173 249.000000
14.325656 232.000000
14.345138 204.000000
14.364620 242.000000
14.384103 235.000000
14.403585 221.000000
14.423067 248.000000
14.442550 230.000000
14.462032 220.000000
14.481515 217.000000
14.500997 222.000000
14.520479 214.000000
14.539962 250.000000
14.559444 236.000000
14.578926 209.000000
14.598409 241.000000
14.617891 232.000000
14.637373 236.000000
14.656856 247.000000
14.676338 237.000000
14.695821 216.000000
14.715303 252.000000
14.734785 249.000000
14.754268 205.000000
14.773750 240.000000
14.793232 239.000000
14.812715 226.000000
14.832197 215.000000
14.851680 238.000000
14.871162 229.000000
14.890644 248.000000
14.910127 263.000000
14.929609 218.000000
14.949091 216.000000
14.968574 222.000000
14.988056 234.000000
15.007538 202.000000
15.027021 258.000000
15.046503 224.000000
15.065986 228.000000
15.085468 204.000000
15.104950 225.000000
15.124433 229.000000
15.143915 216.000000
15.163397 223.000000
15.182880 229.000000
15.202362 210.000000
15.221845 211.000000
15.241327 211.000000
15.260809 224.000000
15.280292 238.000000
15.299774 249.000000
15.319256 230.000000
15.338739 241.000000
15.358221 211.000000
15.377704 229.000000
15.397186 236.000000
15.416668 234.000000
15.436151 206.000000
15.455633 248.000000
15.475115 238.000000
15.494598 227.000000
15.514080 235.000000
15.533562 212.000000
15.553045 234.000000
15.572527 229.000000
15.592010 239.000000
15.611492 199.000000
15.630974 240.000000
15.650457 235.000000
15.669939 238.000000
15.689421 232.000000
15.708904 217.000000
15.728386 229.000000
15.747869 223.000000
15.767351 188.000000
15.786833 247.000000
15.806316 218.000000
15.825798 238.000000
15.845280 229.000000
15.864763 245.000000
15.884245 235.000000
15.903727 210.000000
15.923210 278.000000
15.942692 269.000000
15.962175 232.000000
15.981657 223.000000
16.001139 210.000000
16.020622 234.000000
16.040104 259.000000
16.059586 220.000000
16.079069 226.000000
16.098551 216.000000
16.118034 229.000000
16.137516 239.000000
16.156998 243.000000
16.176481 239.000000
16.195963 209.000000
16.215445 254.000000
16.234928 268.000000
16.254410 238.000000
16.273892 233.000000
16.293375 219.000000
16.312857 221.000000
16.332340 261.000000
16.351822 218.000000
16.371304 237.000000
16.390787 250.000000
16.410269 205.000000
16.429751 246.000000
16.449234 253.000000
16.468716 248.000000
16.488199 220.000000
16.507681 252.000000
16.527163 243.000000
16.546646 216.000000
16.566128 232.000000
16.585610 229.000000
16.605093 215.000000
16.624575 242.000000
16.644057 231.000000
16.663540 240.000000
16.683022 220.000000
16.702505 217.000000
16.721987 228.000000
16.741469 229.000000
16.760952 247.000000
16.780434 227.000000
16.799916 224.000000
16.819399 212.000000
16.838881 216.000000
16.858364 215.000000
16.877846 246.000000
16.897328 231.000000
16.916811 244.000000
16.936293 228.000000
16.955775 238.000000
16.975258 221.000000
16.994740 206.000000
17.014222 228.000000
17.033705 244.000000
17.053187 237.000000
17.072670 238.000000
17.092152 255.000000
17.111634 214.000000
17.131117 217.000000
17.150599 232.000000
17.170081 210.000000
17.189564 222.000000
17.209046 232.000000
17.228529 222.000000
17.248011 238.000000
17.267493 220.000000
17.286976 235.000000
17.306458 256.000000
17.325940 209.000000
17.345423 237.000000
17.364905 224.000000
17.384388 227.000000
17.403870 243.000000
17.423352 221.000000
17.442835 231.000000
17.462317 233.000000
17.481799 237.000000
17.501282 242.000000
17.520764 243.000000
17.540246 220.000000
17.559729 243.000000
17.579211 239.000000
17.598694 223.000000
17.618176 207.000000
17.637658 233.000000
17.657141 263.000000
17.676623 216.000000
17.696105 236.000000
17.715588 237.000000
17.735070 215.000000
17.754553 231.000000
17.774035 243.000000
17.793517 207.000000
17.813000 245.000000
17.832482 207.000000
17.851964 221.000000
17.871447 224.000000
17.890929 203.000000
17.910411 214.000000
17.929894 225.000000
17.949376 235.000000
17.968859 201.000000
17.988341 234.000000
18.007823 235.000000
18.027306 246.000000
18.046788 231.000000
18.066270 228.000000
18.085753 267.000000
18.105235 209.000000
18.124718 232.000000
18.144200 231.000000
18.163682 241.000000
18.183165 239.000000
18.202647 236.000000
18.222129 270.000000
18.241612 264.000000
18.261094 307.000000
18.280576 223.000000
18.300059 306.000000
18.319541 263.000000
18.339024 259.000000
18.358506 262.000000
18.377988 226.000000
18.397471 244.000000
18.416953 236.000000
18.436435 256.000000
18.455918 235.000000
18.475400 239.000000
18.494883 225.000000
18.514365 205.000000
18.533847 217.000000
18.553330 239.000000
18.572812 255.000000
18.592294 248.000000
18.611777 221.000000
18.631259 239.000000
18.650741 227.000000
18.670224 222.000000
18.689706 252.000000
18.709189 232.000000
18.728671 243.000000
18.748153 255.000000
18.767636 230.000000
18.787118 270.000000
18.806600 234.000000
18.826083 261.000000
18.845565 239.000000
18.865048 218.000000
18.884530 249.000000
18.904012 232.000000
18.923495 235.000000
18.942977 230.000000
18.962459 246.000000
18.981942 245.000000
19.001424 235.000000
19.020907 233.000000
19.040389 238.000000
19.059871 229.000000
19.079354 228.000000
19.098836 241.000000
19.118318 226.000000
19.137801 268.000000
19.157283 239.000000
19.176765 211.000000
19.196248 216.000000
19.215730 227.000000
19.235213 220.000000
19.254695 220.000000
19.274177 235.000000
19.293660 256.000000
19.313142 200.000000
19.332624 278.000000
19.352107 245.000000
19.371589 270.000000
19.391072 217.000000
19.410554 252.000000
19.430036 235.000000
19.449519 245.000000
19.469001 229.000000
19.488483 261.000000
19.507966 227.000000
19.527448 257.000000
19.546930 263.000000
19.566413 247.000000
19.585895 218.000000
19.605378 237.000000
19.624860 258.000000
19.644342 235.000000
19.663825 244.000000
19.683307 252.000000
19.702789 237.000000
19.722272 197.000000
19.741754 261.000000
19.761237 233.000000
19.780719 228.000000
19.800201 220.000000
19.819684 218.000000
19.839166 235.000000
19.858648 251.000000
19.878131 227.000000
19.897613 243.000000
19.917095 244.000000
19.936578 236.000000
19.956060 275.000000
19.975543 207.000000
19.995025 207.000000
20.014507 251.000000
20.033990 240.000000
20.053472 237.000000
20.072954 223.000000
20.092437 215.000000
20.111919 250.000000
20.131402 245.000000
20.150884 260.000000
20.170366 254.000000
20.189849 254.000000
20.209331 229.000000
20.228813 243.000000
20.248296 235.000000
20.267778 248.000000
20.287260 221.000000
20.306743 243.000000
20.326225 251.000000
20.345708 253.000000
20.365190 207.000000
20.384672 236.000000
20.404155 239.000000
20.423637 230.000000
20.443119 239.000000
20.462602 259.000000
20.482084 239.000000
20.501567 242.000000
20.521049 217.000000
20.540531 220.000000
20.560014 225.000000
20.579496 228.000000
20.598978 224.000000
20.618461 233.000000
20.637943 198.000000
20.657426 234.000000
20.676908 244.000000
20.696390 232.000000
20.715873 263.000000
20.735355 215.000000
20.754837 233.000000
20.774320 217.000000
20.793802 228.000000
20.813284 260.000000
20.832767 265.000000
20.852249 262.000000
20.871732 198.000000
20.891214 231.000000
20.910696 260.000000
20.930179 246.000000
20.949661 236.000000
20.969143 213.000000
20.988626 238.000000
21.008108 237.000000
21.027591 239.000000
21.047073 242.000000
21.066555 254.000000
21.086038 206.000000
21.105520 242.000000
21.125002 254.000000
21.144485 252.000000
21.163967 241.000000
21.183449 241.000000
21.202932 206.000000
21.222414 235.000000
21.241897 245.000000
21.261379 226.000000
21.280861 236.000000
21.300344 239.000000
21.319826 226.000000
21.339308 229.000000
21.358791 254.000000
21.378273 202.000000
21.397756 237.000000
21.417238 240.000000
21.436720 241.000000
21.456203 220.000000
21.475685 211.000000
21.495167 219.000000
21.514650 244.000000
21.534132 229.000000
21.553614 222.000000
21.573097 243.000000
21.592579 249.000000
21.612062 213.000000
21.631544 242.000000
21.651026 220.000000
21.670509 219.000000
21.689991 203.000000
21.709473 228.000000
21.728956 221.000000
21.748438 236.000000
21.767921 218.000000
21.787403 210.000000
21.806885 271.000000
21.826368 233.000000
21.845850 249.000000
21.865332 222.000000
21.884815 222.000000
21.904297 229.000000
21.923779 225.000000
21.943262 256.000000
21.962744 228.000000
21.982227 218.000000
22.001709 209.000000
22.021191 249.000000
22.040674 229.000000
22.060156 231.000000
22.079638 227.000000
22.099121 239.000000
22.118603 206.000000
22.138086 240.000000
22.157568 204.000000
22.177050 213.000000
22.196533 224.000000
22.216015 210.000000
22.235497 238.000000
22.254980 253.000000
22.274462 231.000000
22.293945 226.000000
22.313427 241.000000
22.332909 230.000000
22.352392 231.000000
22.371874 233.000000
22.391356 226.000000
22.410839 247.000000
22.430321 232.000000
22.449803 233.000000
22.469286 251.000000
22.488768 228.000000
22.508251 214.000000
22.527733 247.000000
22.547215 235.000000
22.566698 220.000000
22.586180 217.000000
22.605662 206.000000
22.625145 244.000000
22.644627 206.000000
22.664110 250.000000
22.683592 237.000000
22.703074 247.000000
22.722557 249.000000
22.742039 221.000000
22.761521 254.000000
22.781004 256.000000
22.800486 251.000000
22.819968 229.000000
22.839451 244.000000
22.858933 231.000000
22.878416 243.000000
22.897898 230.000000
22.917380 222.000000
22.936863 243.000000
22.956345 235.000000
22.975827 249.000000
22.995310 234.000000
23.014792 234.000000
23.034275 238.000000
23.053757 281.000000
23.073239 236.000000
23.092722 263.000000
23.112204 231.000000
23.131686 235.000000
23.151169 226.000000
23.170651 242.000000
23.190133 233.000000
23.209616 226.000000
23.229098 248.000000
23.248581 236.000000
23.268063 242.000000
23.287545 220.000000
23.307028 249.000000
23.326510 247.000000
23.345992 235.000000
23.365475 227.000000
23.384957 224.000000
23.404440 267.000000
23.423922 218.000000
23.443404 253.000000
23.462887 225.000000
23.482369 229.000000
23.501851 244.000000
23.521334 215.000000
23.540816 246.000000
23.560298 250.000000
23.579781 228.000000
23.599263 238.000000
23.618746 239.000000
23.638228 225.000000
23.657710 220.000000
23.677193 243.000000
23.696675 216.000000
23.716157 198.000000
23.735640 253.000000
23.755122 259.000000
23.774605 276.000000
23.794087 267.000000
23.813569 218.000000
23.833052 246.000000
23.852534 231.000000
23.872016 222.000000
23.891499 226.000000
23.910981 209.000000
23.930463 232.000000
23.949946 221.000000
23.969428 233.000000
23.988911 235.000000
24.008393 213.000000
24.027875 224.000000
24.047358 228.000000
24.066840 228.000000
24.086322 227.000000
24.105805 231.000000
24.125287 249.000000
24.144770 227.000000
24.164252 228.000000
24.183734 245.000000
24.203217 248.000000
24.222699 210.000000
24.242181 242.000000
24.261664 247.000000
24.281146 240.000000
24.300629 240.000000
24.320111 245.000000
24.339593 217.000000
24.359076 239.000000
24.378558 227.000000
24.398040 242.000000
24.417523 213.000000
24.437005 215.000000
24.456487 263.000000
24.475970 249.000000
24.495452 208.000000
24.514935 239.000000
24.534417 248.000000
24.553899 242.000000
24.573382 223.000000
24.592864 236.000000
24.612346 246.000000
24.631829 228.000000
24.651311 233.000000
24.670794 245.000000
24.690276 238.000000
24.709758 226.000000
24.729241 214.000000
24.748723 243.000000
24.768205 238.000000
24.787688 226.000000
24.807170 213.000000
24.826652 207.000000
24.846135 216.000000
24.865617 234.000000
24.885100 238.000000
24.904582 258.000000
24.924064 222.000000
24.943547 236.000000
24.963029 232.000000
24.982511 245.000000
25.001994 240.000000
25.021476 221.000000
25.040959 263.000000
25.060441 250.000000
25.079923 280.000000
25.099406 263.000000
25.118888 252.000000
25.138370 228.000000
25.157853 240.000000
25.177335 239.000000
25.196817 248.000000
25.216300 234.000000
25.235782 242.000000
25.255265 235.000000
25.274747 258.000000
25.294229 234.000000
25.313712 239.000000
25.333194 210.000000
25.352676 225.000000
25.372159 236.000000
25.391641 237.000000
25.411124 228.000000
25.430606 241.000000
25.450088 223.000000
25.469571 239.000000
25.489053 224.000000
25.508535 232.000000
25.528018 260.000000
25.547500 221.000000
25.566982 254.000000
25.586465 227.000000
25.605947 233.000000
25.625430 230.000000
25.644912 234.000000
25.664394 206.000000
25.683877 235.000000
25.703359 216.000000
25.722841 247.000000
25.742324 229.000000
25.761806 237.000000
25.781289 230.000000
25.800771 239.000000
25.820253 244.000000
25.839736 228.000000
25.859218 242.000000
25.878700 263.000000
25.898183 263.000000
25.917665 222.000000
25.937148 228.000000
25.956630 205.000000
25.976112 235.000000
25.995595 239.000000
26.015077 221.000000
26.034559 278.000000
26.054042 252.000000
26.073524 235.000000
26.093006 222.000000
26.112489 262.000000
26.131971 233.000000
26.151454 232.000000
26.170936 227.000000
26.190418 215.000000
26.209901 230.000000
26.229383 236.000000
26.248865 235.000000
26.268348 236.000000
26.287830 267.000000
26.307313 238.000000
26.326795 231.000000
26.346277 204.000000
26.365760 220.000000
26.385242 237.000000
26.404724 254.000000
26.424207 248.000000
26.443689 255.000000
26.463171 227.000000
26.482654 215.000000
26.502136 213.000000
26.521619 239.000000
26.541101 241.000000
26.560583 237.000000
26.580066 237.000000
26.599548 280.000000
26.619030 290.000000
26.638513 362.000000
26.657995 364.000000
26.677478 296.000000
26.696960 258.000000
26.716442 302.000000
26.735925 279.000000
26.755407 246.000000
26.774889 224.000000
26.794372 262.000000
26.813854 274.000000
26.833336 260.000000
26.852819 238.000000
26.872301 224.000000
26.891784 235.000000
26.911266 260.000000
26.930748 236.000000
26.950231 219.000000
26.969713 220.000000
26.989195 231.000000
27.008678 230.000000
27.028160 252.000000
27.047643 227.000000
27.067125 234.000000
27.086607 218.000000
27.106090 240.000000
27.125572 226.000000
27.145054 223.000000
27.164537 258.000000
27.184019 242.000000
27.203501 211.000000
27.222984 245.000000
27.242466 231.000000
27.261949 200.000000
27.281431 239.000000
27.300913 270.000000
27.320396 252.000000
27.339878 248.000000
27.359360 232.000000
27.378843 224.000000
27.398325 257.000000
27.417808 254.000000
27.437290 221.000000
27.456772 188.000000
27.476255 254.000000
27.495737 262.000000
27.515219 218.000000
27.534702 251.000000
27.554184 243.000000
27.573667 245.000000
27.593149 219.000000
27.612631 241.000000
27.632114 254.000000
27.651596 260.000000
27.671078 243.000000
27.690561 224.000000
27.710043 246.000000
27.729525 249.000000
27.749008 248.000000
27.768490 229.000000
27.787973 233.000000
27.807455 250.000000
27.826937 231.000000
27.846420 220.000000
27.865902 252.000000
27.885384 249.000000
27.904867 258.000000
27.924349 221.000000
27.943832 223.000000
27.963314 240.000000
27.982796 233.000000
28.002279 229.000000
28.021761 222.000000
28.041243 259.000000
28.060726 227.000000
28.080208 221.000000
28.099690 227.000000
28.119173 252.000000
28.138655 254.000000
28.158138 262.000000
28.177620 256.000000
28.197102 253.000000
28.216585 262.000000
28.236067 263.000000
28.255549 232.000000
28.275032 248.000000
28.294514 265.000000
28.313997 271.000000
28.333479 252.000000
28.352961 238.000000
28.372444 230.000000
28.391926 253.000000
28.411408 237.000000
28.430891 255.000000
28.450373 247.000000
28.469855 265.000000
28.489338 233.000000
28.508820 251.000000
28.528303 238.000000
28.547785 270.000000
28.567267 260.000000
28.586750 268.000000
28.606232 295.000000
28.625714 283.000000
28.645197 304.000000
28.664679 257.000000
28.684162 255.000000
28.703644 253.000000
28.723126 263.000000
28.742609 225.000000
28.762091 242.000000
28.781573 231.000000
28.801056 251.000000
28.820538 212.000000
28.840020 207.000000
28.859503 221.000000
28.878985 257.000000
28.898468 237.000000
28.917950 256.000000
28.937432 222.000000
28.956915 245.000000
28.976397 255.000000
28.995879 247.000000
29.015362 243.000000
29.034844 242.000000
29.054327 244.000000
29.073809 233.000000
29.093291 236.000000
29.112774 236.000000
29.132256 247.000000
29.151738 270.000000
29.171221 260.000000
29.190703 250.000000
29.210185 218.000000
29.229668 233.000000
29.249150 258.000000
29.268633 246.000000
29.288115 257.000000
29.307597 269.000000
29.327080 284.000000
29.346562 322.000000
29.366044 454.000000
29.385527 595.000000
29.405009 608.000000
29.424492 546.000000
29.443974 471.000000
29.463456 472.000000
29.482939 445.000000
29.502421 367.000000
29.521903 315.000000
29.541386 261.000000
29.560868 257.000000
29.580351 314.000000
29.599833 266.000000
29.619315 265.000000
29.638798 235.000000
29.658280 279.000000
29.677762 273.000000
29.697245 229.000000
29.716727 257.000000
29.736209 257.000000
29.755692 245.000000
29.775174 236.000000
29.794657 225.000000
29.814139 223.000000
29.833621 214.000000
29.853104 258.000000
29.872586 236.000000
29.892068 247.000000
29.911551 219.000000
29.931033 250.000000
29.950516 265.000000
29.969998 259.000000
29.989480 256.000000
30.008963 299.000000
30.028445 301.000000
30.047927 309.000000
30.067410 392.000000
30.086892 395.000000
30.106374 354.000000
30.125857 317.000000
30.145339 300.000000
30.164822 293.000000
30.184304 279.000000
30.203786 265.000000
30.223269 269.000000
30.242751 255.000000
30.262233 238.000000
30.281716 245.000000
30.301198 256.000000
30.320681 262.000000
30.340163 256.000000
30.359645 231.000000
30.379128 251.000000
30.398610 247.000000
30.418092 237.000000
30.437575 251.000000
30.457057 253.000000
30.476539 232.000000
30.496022 223.000000
30.515504 216.000000
30.534987 271.000000
30.554469 250.000000
30.573951 243.000000
30.593434 254.000000
30.612916 267.000000
30.632398 247.000000
30.651881 251.000000
30.671363 230.000000
30.690846 231.000000
30.710328 237.000000
30.729810 209.000000
30.749293 274.000000
30.768775 234.000000
30.788257 234.000000
30.807740 245.000000
30.827222 252.000000
30.846704 248.000000
30.866187 243.000000
30.885669 208.000000
30.905152 233.000000
30.924634 268.000000
30.944116 239.000000
30.963599 239.000000
30.983081 249.000000
31.002563 250.000000
31.022046 241.000000
31.041528 244.000000
31.061011 222.000000
31.080493 243.000000
31.099975 240.000000
31.119458 247.000000
31.138940 218.000000
31.158422 232.000000
31.177905 220.000000
31.197387 228.000000
31.216870 263.000000
31.236352 244.000000
31.255834 266.000000
31.275317 226.000000
31.294799 232.000000
31.314281 226.000000
31.333764 242.000000
31.353246 229.000000
31.372728 256.000000
31.392211 223.000000
31.411693 252.000000
31.431176 263.000000
31.450658 283.000000
31.470140 263.000000
31.489623 277.000000
31.509105 270.000000
31.528587 252.000000
31.548070 273.000000
31.567552 238.000000
31.587035 237.000000
31.606517 252.000000
31.625999 230.000000
31.645482 242.000000
31.664964 248.000000
31.684446 249.000000
31.703929 254.000000
31.723411 255.000000
31.742893 222.000000
31.762376 227.000000
31.781858 237.000000
31.801341 242.000000
31.820823 232.000000
31.840305 247.000000
31.859788 243.000000
31.879270 258.000000
31.898752 255.000000
31.918235 276.000000
31.937717 247.000000
31.957200 277.000000
31.976682 255.000000
31.996164 282.000000
32.015647 235.000000
32.035129 243.000000
32.054611 230.000000
32.074094 204.000000
32.093576 218.000000
32.113058 254.000000
32.132541 258.000000
32.152023 230.000000
32.171506 240.000000
32.190988 247.000000
32.210470 235.000000
32.229953 240.000000
32.249435 258.000000
32.268917 271.000000
32.288400 229.000000
32.307882 213.000000
32.327365 217.000000
32.346847 257.000000
32.366329 271.000000
32.385812 260.000000
32.405294 239.000000
32.424776 250.000000
32.444259 269.000000
32.463741 252.000000
32.483223 255.000000
32.502706 253.000000
32.522188 248.000000
32.541671 266.000000
32.561153 280.000000
32.580635 272.000000
32.600118 247.000000
32.619600 255.000000
32.639082 257.000000
32.658565 256.000000
32.678047 250.000000
32.697530 226.000000
32.717012 235.000000
32.736494 275.000000
32.755977 247.000000
32.775459 218.000000
32.794941 231.000000
32.814424 252.000000
32.833906 228.000000
32.853389 223.000000
32.872871 247.000000
32.892353 256.000000
32.911836 214.000000
32.931318 222.000000
32.950800 267.000000
32.970283 262.000000
32.989765 241.000000
33.009247 246.000000
33.028730 238.000000
33.048212 233.000000
33.067695 237.000000
33.087177 235.000000
33.106659 253.000000
33.126142 230.000000
33.145624 240.000000
33.165106 269.000000
33.184589 251.000000
33.204071 257.000000
33.223554 329.000000
33.243036 336.000000
33.262518 278.000000
33.282001 279.000000
33.301483 271.000000
33.320965 308.000000
33.340448 269.000000
33.359930 240.000000
33.379412 255.000000
33.398895 239.000000
33.418377 206.000000
33.437860 220.000000
33.457342 271.000000
33.476824 226.000000
33.496307 239.000000
33.515789 226.000000
33.535271 264.000000
33.554754 224.000000
33.574236 226.000000
33.593719 248.000000
33.613201 266.000000
33.632683 236.000000
33.652166 226.000000
33.671648 251.000000
33.691130 270.000000
33.710613 226.000000
33.730095 252.000000
33.749577 249.000000
33.769060 233.000000
33.788542 261.000000
33.808025 218.000000
33.827507 262.000000
33.846989 221.000000
33.866472 248.000000
33.885954 242.000000
33.905436 235.000000
33.924919 257.000000
33.944401 229.000000
33.963884 239.000000
33.983366 261.000000
34.002848 258.000000
34.022331 241.000000
34.041813 224.000000
34.061295 234.000000
34.080778 253.000000
34.100260 236.000000
34.119742 231.000000
34.139225 281.000000
34.158707 246.000000
34.178190 251.000000
34.197672 263.000000
34.217154 247.000000
34.236637 219.000000
34.256119 260.000000
34.275601 235.000000
34.295084 220.000000
34.314566 233.000000
34.334049 247.000000
34.353531 226.000000
34.373013 262.000000
34.392496 232.000000
34.411978 250.000000
34.431460 239.000000
34.450943 263.000000
34.470425 243.000000
34.489908 252.000000
34.509390 259.000000
34.528872 231.000000
34.548355 277.000000
34.567837 289.000000
34.587319 274.000000
34.606802 241.000000
34.626284 242.000000
34.645766 235.000000
34.665249 238.000000
34.684731 229.000000
34.704214 240.000000
34.723696 251.000000
34.743178 239.000000
34.762661 230.000000
34.782143 239.000000
34.801625 242.000000
34.821108 258.000000
34.840590 252.000000
34.860073 257.000000
34.879555 258.000000
34.899037 238.000000
34.918520 241.000000
34.938002 226.000000
34.957484 249.000000
34.976967 264.000000
34.996449 249.000000
35.015931 252.000000
35.035414 243.000000
35.054896 220.000000
35.074379 272.000000
35.093861 285.000000
35.113343 256.000000
35.132826 272.000000
35.152308 260.000000
35.171790 250.000000
35.191273 237.000000
35.210755 286.000000
35.230238 277.000000
35.249720 253.000000
35.269202 261.000000
35.288685 273.000000
35.308167 284.000000
35.327649 308.000000
35.347132 340.000000
35.366614 403.000000
35.386096 526.000000
35.405579 732.000000
35.425061 894.000000
35.444544 822.000000
35.464026 678.000000
35.483508 594.000000
35.502991 606.000000
35.522473 597.000000
35.541955 486.000000
35.561438 420.000000
35.580920 296.000000
35.600403 297.000000
35.619885 284.000000
35.639367 266.000000
35.658850 309.000000
35.678332 263.000000
35.697814 256.000000
35.717297 269.000000
35.736779 241.000000
35.756261 270.000000
35.775744 227.000000
35.795226 274.000000
35.814709 247.000000
35.834191 263.000000
35.853673 239.000000
35.873156 247.000000
35.892638 261.000000
35.912120 260.000000
35.931603 237.000000
35.951085 287.000000
35.970568 243.000000
35.990050 259.000000
36.009532 285.000000
36.029015 266.000000
36.048497 245.000000
36.067979 252.000000
36.087462 223.000000
36.106944 290.000000
36.126426 267.000000
36.145909 227.000000
36.165391 229.000000
36.184874 253.000000
36.204356 267.000000
36.223838 223.000000
36.243321 245.000000
36.262803 212.000000
36.282285 227.000000
36.301768 256.000000
36.321250 253.000000
36.340733 250.000000
36.360215 278.000000
36.379697 237.000000
36.399180 242.000000
36.418662 238.000000
36.438144 261.000000
36.457627 241.000000
36.477109 279.000000
36.496592 298.000000
36.516074 280.000000
36.535556 278.000000
36.555039 294.000000
36.574521 278.000000
36.594003 310.000000
36.613486 263.000000
36.632968 293.000000
36.652450 254.000000
36.671933 231.000000
36.691415 263.000000
36.710898 251.000000
36.730380 259.000000
36.749862 231.000000
36.769345 258.000000
36.788827 251.000000
36.808309 277.000000
36.827792 231.000000
36.847274 273.000000
36.866757 231.000000
36.886239 237.000000
36.905721 279.000000
36.925204 267.000000
36.944686 254.000000
36.964168 235.000000
36.983651 257.000000
37.003133 278.000000
37.022615 272.000000
37.042098 310.000000
37.061580 299.000000
37.081063 284.000000
37.100545 265.000000
37.120027 247.000000
37.139510 253.000000
37.158992 283.000000
37.178474 297.000000
37.197957 277.000000
37.217439 252.000000
37.236922 245.000000
37.256404 262.000000
37.275886 257.000000
37.295369 242.000000
37.314851 251.000000
37.334333 281.000000
37.353816 244.000000
37.373298 245.000000
37.392780 257.000000
37.412263 272.000000
37.431745 235.000000
37.451228 264.000000
37.470710 247.000000
37.490192 236.000000
37.509675 243.000000
37.529157 249.000000
37.548639 225.000000
37.568122 260.000000
37.587604 236.000000
37.607087 243.000000
37.626569 260.000000
37.646051 248.000000
37.665534 247.000000
37.685016 226.000000
37.704498 256.000000
37.723981 244.000000
37.743463 263.000000
37.762945 242.000000
37.782428 234.000000
37.801910 243.000000
37.821393 237.000000
37.840875 251.000000
37.860357 218.000000
37.879840 255.000000
37.899322 261.000000
37.918804 245.000000
37.938287 238.000000
37.957769 241.000000
37.977252 268.000000
37.996734 271.000000
38.016216 248.000000
38.035699 239.000000
38.055181 269.000000
38.074663 233.000000
38.094146 261.000000
38.113628 268.000000
38.133111 238.000000
38.152593 217.000000
38.172075 260.000000
38.191558 240.000000
38.211040 256.000000
38.230522 246.000000
38.250005 247.000000
38.269487 259.000000
38.288969 232.000000
38.308452 246.000000
38.327934 241.000000
38.347417 259.000000
38.366899 266.000000
38.386381 237.000000
38.405864 254.000000
38.425346 258.000000
38.444828 255.000000
38.464311 267.000000
38.483793 242.000000
38.503276 242.000000
38.522758 244.000000
38.542240 233.000000
38.561723 230.000000
38.581205 220.000000
38.600687 261.000000
38.620170 261.000000
38.639652 249.000000
38.659134 251.000000
38.678617 238.000000
38.698099 215.000000
38.717582 260.000000
38.737064 235.000000
38.756546 252.000000
38.776029 249.000000
38.795511 228.000000
38.814993 263.000000
38.834476 224.000000
38.853958 242.000000
38.873441 251.000000
38.892923 259.000000
38.912405 242.000000
38.931888 242.000000
38.951370 247.000000
38.970852 242.000000
38.990335 224.000000
39.009817 280.000000
39.029299 259.000000
39.048782 236.000000
39.068264 230.000000
39.087747 253.000000
39.107229 257.000000
39.126711 237.000000
39.146194 255.000000
39.165676 249.000000
39.185158 239.000000
39.204641 239.000000
39.224123 247.000000
39.243606 222.000000
39.263088 267.000000
39.282570 242.000000
39.302053 224.000000
39.321535 255.000000
39.341017 267.000000
39.360500 259.000000
39.379982 244.000000
39.399464 282.000000
39.418947 247.000000
39.438429 290.000000
39.457912 251.000000
39.477394 252.000000
39.496876 264.000000
39.516359 271.000000
39.535841 281.000000
39.555323 285.000000
39.574806 281.000000
39.594288 274.000000
39.613771 240.000000
39.633253 253.000000
39.652735 273.000000
39.672218 244.000000
39.691700 242.000000
39.711182 263.000000
39.730665 283.000000
39.750147 265.000000
39.769630 238.000000
39.789112 240.000000
39.808594 251.000000
39.828077 255.000000
39.847559 258.000000
39.867041 238.000000
39.886524 248.000000
39.906006 265.000000
39.925488 265.000000
39.944971 252.000000
39.964453 229.000000
39.983936 263.000000
40.003418 239.000000
40.022900 239.000000
40.042383 253.000000
40.061865 245.000000
40.081347 254.000000
40.100830 254.000000
40.120312 256.000000
40.139795 234.000000
40.159277 255.000000
40.178759 252.000000
40.198242 286.000000
40.217724 238.000000
40.237206 290.000000
40.256689 255.000000
40.276171 248.000000
40.295653 237.000000
40.315136 271.000000
40.334618 253.000000
40.354101 274.000000
40.373583 244.000000
40.393065 254.000000
40.412548 253.000000
40.432030 248.000000
40.451512 253.000000
40.470995 259.000000
40.490477 243.000000
40.509960 240.000000
40.529442 256.000000
40.548924 275.000000
40.568407 235.000000
40.587889 238.000000
40.607371 249.000000
40.626854 277.000000
40.646336 257.000000
40.665818 251.000000
40.685301 270.000000
40.704783 241.000000
40.724266 259.000000
40.743748 273.000000
40.763230 252.000000
40.782713 245.000000
40.802195 241.000000
40.821677 251.000000
40.841160 284.000000
40.860642 240.000000
40.880125 249.000000
40.899607 227.000000
40.919089 238.000000
40.938572 272.000000
40.958054 246.000000
40.977536 255.000000
40.997019 237.000000
41.016501 268.000000
41.035983 257.000000
41.055466 233.000000
41.074948 230.000000
41.094431 254.000000
41.113913 236.000000
41.133395 246.000000
41.152878 282.000000
41.172360 243.000000
41.191842 229.000000
41.211325 227.000000
41.230807 249.000000
41.250290 285.000000
41.269772 247.000000
41.289254 257.000000
41.308737 255.000000
41.328219 285.000000
41.347701 247.000000
41.367184 250.000000
41.386666 241.000000
41.406149 241.000000
41.425631 238.000000
41.445113 281.000000
41.464596 265.000000
41.484078 268.000000
41.503560 301.000000
41.523043 277.000000
41.542525 237.000000
41.562007 269.000000
41.581490 254.000000
41.600972 225.000000
41.620455 261.000000
41.639937 226.000000
41.659419 234.000000
41.678902 272.000000
41.698384 243.000000
41.717866 253.000000
41.737349 227.000000
41.756831 250.000000
41.776314 283.000000
41.795796 264.000000
41.815278 226.000000
41.834761 270.000000
41.854243 226.000000
41.873725 244.000000
41.893208 214.000000
41.912690 244.000000
41.932172 285.000000
41.951655 246.000000
41.971137 248.000000
41.990620 265.000000
42.010102 255.000000
42.029584 256.000000
42.049067 245.000000
42.068549 238.000000
42.088031 239.000000
42.107514 234.000000
42.126996 273.000000
42.146479 250.000000
42.165961 260.000000
42.185443 269.000000
42.204926 258.000000
42.224408 238.000000
42.243890 268.000000
42.263373 273.000000
42.282855 244.000000
42.302337 247.000000
42.321820 249.000000
42.341302 236.000000
42.360785 252.000000
42.380267 250.000000
42.399749 228.000000
42.419232 234.000000
42.438714 248.000000
42.458196 266.000000
42.477679 237.000000
42.497161 234.000000
42.516644 266.000000
42.536126 246.000000
42.555608 275.000000
42.575091 252.000000
42.594573 230.000000
42.614055 256.000000
42.633538 268.000000
42.653020 230.000000
42.672502 240.000000
42.691985 248.000000
42.711467 270.000000
42.730950 278.000000
42.750432 230.000000
42.769914 235.000000
42.789397 265.000000
42.808879 291.000000
42.828361 278.000000
42.847844 251.000000
42.867326 267.000000
42.886809 277.000000
42.906291 245.000000
42.925773 242.000000
42.945256 250.000000
42.964738 250.000000
42.984220 280.000000
43.003703 296.000000
43.023185 273.000000
43.042667 340.000000
43.062150 378.000000
43.081632 360.000000
43.101115 323.000000
43.120597 284.000000
43.140079 281.000000
43.159562 324.000000
43.179044 330.000000
43.198526 343.000000
43.218009 289.000000
43.237491 267.000000
43.256974 243.000000
43.276456 274.000000
43.295938 262.000000
43.315421 260.000000
43.334903 259.000000
43.354385 257.000000
43.373868 273.000000
43.393350 292.000000
43.412833 262.000000
43.432315 251.000000
43.451797 243.000000
43.471280 238.000000
43.490762 225.000000
43.510244 249.000000
43.529727 258.000000
43.549209 248.000000
43.568691 242.000000
43.588174 275.000000
43.607656 243.000000
43.627139 233.000000
43.646621 242.000000
43.666103 262.000000
43.685586 237.000000
43.705068 216.000000
43.724550 237.000000
43.744033 233.000000
43.763515 248.000000
43.782998 250.000000
43.802480 276.000000
43.821962 240.000000
43.841445 229.000000
43.860927 234.000000
43.880409 234.000000
43.899892 237.000000
43.919374 278.000000
43.938856 265.000000
43.958339 277.000000
43.977821 238.000000
43.997304 253.000000
44.016786 246.000000
44.036268 230.000000
44.055751 260.000000
44.075233 240.000000
44.094715 234.000000
44.114198 286.000000
44.133680 262.000000
44.153163 251.000000
44.172645 277.000000
44.192127 218.000000
44.211610 288.000000
44.231092 210.000000
44.250574 231.000000
44.270057 250.000000
44.289539 251.000000
44.309021 230.000000
44.328504 274.000000
44.347986 255.000000
44.367469 222.000000
44.386951 269.000000
44.406433 265.000000
44.425916 273.000000
44.445398 265.000000
44.464880 229.000000
44.484363 257.000000
44.503845 266.000000
44.523328 254.000000
44.542810 268.000000
44.562292 266.000000
44.581775 239.000000
44.601257 243.000000
44.620739 284.000000
44.640222 266.000000
44.659704 280.000000
44.679186 258.000000
44.698669 272.000000
44.718151 233.000000
44.737634 261.000000
44.757116 254.000000
44.776598 263.000000
44.796081 238.000000
44.815563 243.000000
44.835045 250.000000
44.854528 266.000000
44.874010 271.000000
44.893493 255.000000
44.912975 258.000000
44.932457 250.000000
44.951940 254.000000
44.971422 221.000000
44.990904 248.000000
45.010387 288.000000
45.029869 260.000000
45.049352 268.000000
45.068834 257.000000
45.088316 251.000000
45.107799 284.000000
45.127281 249.000000
45.146763 262.000000
45.166246 266.000000
45.185728 216.000000
45.205210 246.000000
45.224693 251.000000
45.244175 264.000000
45.263658 257.000000
45.283140 234.000000
45.302622 248.000000
45.322105 214.000000
45.341587 262.000000
45.361069 257.000000
45.380552 261.000000
45.400034 253.000000
45.419517 251.000000
45.438999 245.000000
45.458481 268.000000
45.477964 251.000000
45.497446 258.000000
45.516928 260.000000
45.536411 278.000000
45.555893 271.000000
45.575375 248.000000
45.594858 274.000000
45.614340 241.000000
45.633823 244.000000
45.653305 252.000000
45.672787 260.000000
45.692270 266.000000
45.711752 232.000000
45.731234 217.000000
45.750717 256.000000
45.770199 282.000000
45.789682 224.000000
45.809164 262.000000
45.828646 235.000000
45.848129 257.000000
45.867611 253.000000
45.887093 249.000000
45.906576 263.000000
45.926058 261.000000
45.945540 287.000000
45.965023 240.000000
45.984505 259.000000
46.003988 272.000000
46.023470 246.000000
46.042952 260.000000
46.062435 265.000000
46.081917 251.000000
46.101399 255.000000
46.120882 237.000000
46.140364 236.000000
46.159847 249.000000
46.179329 278.000000
46.198811 262.000000
46.218294 234.000000
46.237776 274.000000
46.257258 269.000000
46.276741 263.000000
46.296223 241.000000
46.315705 254.000000
46.335188 253.000000
46.354670 266.000000
46.374153 273.000000
46.393635 263.000000
46.413117 261.000000
46.432600 257.000000
46.452082 263.000000
46.471564 280.000000
46.491047 261.000000
46.510529 221.000000
46.530012 245.000000
46.549494 251.000000
46.568976 257.000000
46.588459 266.000000
46.607941 256.000000
46.627423 253.000000
46.646906 234.000000
46.666388 248.000000
46.685871 243.000000
46.705353 254.000000
46.724835 279.000000
46.744318 295.000000
46.763800 247.000000
46.783282 240.000000
46.802765 244.000000
46.822247 271.000000
46.841729 277.000000
46.861212 239.000000
46.880694 249.000000
46.900177 264.000000
46.919659 280.000000
46.939141 271.000000
46.958624 260.000000
46.978106 243.000000
46.997588 295.000000
47.017071 232.000000
47.036553 236.000000
47.056036 255.000000
47.075518 239.000000
47.095000 260.000000
47.114483 288.000000
47.133965 280.000000
47.153447 281.000000
47.172930 259.000000
47.192412 230.000000
47.211894 264.000000
47.231377 245.000000
47.250859 251.000000
47.270342 251.000000
47.289824 238.000000
47.309306 263.000000
47.328789 249.000000
47.348271 263.000000
47.367753 242.000000
47.387236 245.000000
47.406718 277.000000
47.426201 237.000000
47.445683 266.000000
47.465165 260.000000
47.484648 287.000000
47.504130 277.000000
47.523612 311.000000
47.543095 267.000000
47.562577 284.000000
47.582059 282.000000
47.601542 281.000000
47.621024 259.000000
47.640507 283.000000
47.659989 297.000000
47.679471 269.000000
47.698954 272.000000
47.718436 248.000000
47.737918 284.000000
47.757401 248.000000
47.776883 300.000000
47.796366 258.000000
47.815848 268.000000
47.835330 250.000000
47.854813 258.000000
47.874295 262.000000
47.893777 265.000000
47.913260 244.000000
47.932742 272.000000
47.952224 237.000000
47.971707 267.000000
47.991189 235.000000
48.010672 262.000000
48.030154 236.000000
48.049636 289.000000
48.069119 280.000000
48.088601 276.000000
48.108083 276.000000
48.127566 282.000000
48.147048 234.000000
48.166531 244.000000
48.186013 241.000000
48.205495 267.000000
48.224978 287.000000
48.244460 243.000000
48.263942 256.000000
48.283425 240.000000
48.302907 259.000000
48.322389 258.000000
48.341872 276.000000
48.361354 276.000000
48.380837 278.000000
48.400319 258.000000
48.419801 275.000000
48.439284 237.000000
48.458766 281.000000
48.478248 256.000000
48.497731 262.000000
48.517213 290.000000
48.536696 327.000000
48.556178 323.000000
48.575660 299.000000
48.595143 277.000000
48.614625 300.000000
48.634107 287.000000
48.653590 285.000000
48.673072 310.000000
48.692555 282.000000
48.712037 281.000000
48.731519 236.000000
48.751002 289.000000
48.770484 269.000000
48.789966 296.000000
48.809449 271.000000
48.828931 268.000000
48.848413 264.000000
48.867896 286.000000
48.887378 253.000000
48.906861 261.000000
48.926343 239.000000
48.945825 268.000000
48.965308 278.000000
48.984790 252.000000
49.004272 240.000000
49.023755 270.000000
49.043237 239.000000
49.062720 253.000000
49.082202 269.000000
49.101684 236.000000
49.121167 236.000000
49.140649 264.000000
49.160131 232.000000
49.179614 268.000000
49.199096 252.000000
49.218578 272.000000
49.238061 243.000000
49.257543 281.000000
49.277026 238.000000
49.296508 251.000000
49.315990 268.000000
49.335473 275.000000
49.354955 273.000000
49.374437 281.000000
49.393920 244.000000
49.413402 274.000000
49.432885 245.000000
49.452367 257.000000
49.471849 285.000000
49.491332 279.000000
49.510814 256.000000
49.530296 270.000000
49.549779 271.000000
49.569261 230.000000
49.588743 263.000000
49.608226 277.000000
49.627708 275.000000
49.647191 278.000000
49.666673 248.000000
49.686155 248.000000
49.705638 280.000000
49.725120 234.000000
49.744602 221.000000
49.764085 244.000000
49.783567 266.000000
49.803050 262.000000
49.822532 244.000000
49.842014 253.000000
49.861497 281.000000
49.880979 244.000000
49.900461 274.000000
49.919944 292.000000
49.939426 271.000000
49.958908 239.000000
49.978391 234.000000
49.997873 247.000000
50.017356 237.000000
50.036838 241.000000
50.056320 235.000000
50.075803 256.000000
50.095285 247.000000
50.114767 272.000000
50.134250 230.000000
50.153732 244.000000
50.173215 276.000000
50.192697 260.000000
50.212179 251.000000
50.231662 280.000000
50.251144 256.000000
50.270626 273.000000
50.290109 306.000000
50.309591 286.000000
50.329074 264.000000
50.348556 251.000000
50.368038 234.000000
50.387521 254.000000
50.407003 247.000000
50.426485 242.000000
50.445968 250.000000
50.465450 264.000000
50.484932 248.000000
50.504415 253.000000
50.523897 260.000000
50.543380 246.000000
50.562862 255.000000
50.582344 236.000000
50.601827 245.000000
50.621309 250.000000
50.640791 262.000000
50.660274 243.000000
50.679756 276.000000
50.699239 247.000000
50.718721 272.000000
50.738203 228.000000
50.757686 257.000000
50.777168 262.000000
50.796650 272.000000
50.816133 261.000000
50.835615 271.000000
50.855097 263.000000
50.874580 257.000000
50.894062 260.000000
50.913545 268.000000
50.933027 262.000000
50.952509 257.000000
50.971992 266.000000
50.991474 267.000000
51.010956 233.000000
51.030439 272.000000
51.049921 262.000000
51.069404 242.000000
51.088886 237.000000
51.108368 266.000000
51.127851 254.000000
51.147333 257.000000
51.166815 256.000000
51.186298 262.000000
51.205780 262.000000
51.225262 250.000000
51.244745 254.000000
51.264227 254.000000
51.283710 239.000000
51.303192 255.000000
51.322674 259.000000
51.342157 293.000000
51.361639 246.000000
51.381121 244.000000
51.400604 233.000000
51.420086 238.000000
51.439569 268.000000
51.459051 247.000000
51.478533 255.000000
51.498016 268.000000
51.517498 255.000000
51.536980 258.000000
51.556463 249.000000
51.575945 268.000000
51.595427 258.000000
51.614910 242.000000
51.634392 231.000000
51.653875 265.000000
51.673357 277.000000
51.692839 240.000000
51.712322 254.000000
51.731804 226.000000
51.751286 268.000000
51.770769 247.000000
51.790251 257.000000
51.809734 246.000000
51.829216 269.000000
51.848698 260.000000
51.868181 260.000000
51.887663 264.000000
51.907145 253.000000
51.926628 287.000000
51.946110 269.000000
51.965593 265.000000
51.985075 228.000000
52.004557 274.000000
52.024040 252.000000
52.043522 284.000000
52.063004 263.000000
52.082487 272.000000
52.101969 249.000000
52.121451 309.000000
52.140934 229.000000
52.160416 219.000000
52.179899 237.000000
52.199381 263.000000
52.218863 280.000000
52.238346 254.000000
52.257828 266.000000
52.277310 276.000000
52.296793 233.000000
52.316275 255.000000
52.335758 262.000000
52.355240 225.000000
52.374722 243.000000
52.394205 249.000000
52.413687 255.000000
52.433169 248.000000
52.452652 237.000000
52.472134 253.000000
52.491616 261.000000
52.511099 253.000000
52.530581 274.000000
52.550064 259.000000
52.569546 246.000000
52.589028 249.000000
52.608511 276.000000
52.627993 257.000000
52.647475 293.000000
52.666958 230.000000
52.686440 250.000000
52.705923 269.000000
52.725405 247.000000
52.744887 259.000000
52.764370 261.000000
52.783852 278.000000
52.803334 254.000000
52.822817 268.000000
52.842299 243.000000
52.861781 273.000000
52.881264 252.000000
52.900746 271.000000
52.920229 265.000000
52.939711 273.000000
52.959193 246.000000
52.978676 251.000000
52.998158 244.000000
53.017640 259.000000
53.037123 258.000000
53.056605 261.000000
53.076088 265.000000
53.095570 256.000000
53.115052 268.000000
53.134535 278.000000
53.154017 257.000000
53.173499 264.000000
53.192982 268.000000
53.212464 276.000000
53.231946 254.000000
53.251429 277.000000
53.270911 241.000000
53.290394 282.000000
53.309876 268.000000
53.329358 283.000000
53.348841 302.000000
53.368323 290.000000
53.387805 310.000000
53.407288 320.000000
53.426770 356.000000
53.446253 316.000000
53.465735 287.000000
53.485217 284.000000
53.504700 298.000000
53.524182 297.000000
53.543664 303.000000
53.563147 298.000000
53.582629 319.000000
53.602112 315.000000
53.621594 296.000000
53.641076 293.000000
53.660559 238.000000
53.680041 272.000000
53.699523 277.000000
53.719006 262.000000
53.738488 288.000000
53.757970 245.000000
53.777453 224.000000
53.796935 271.000000
53.816418 247.000000
53.835900 242.000000
53.855382 252.000000
53.874865 245.000000
53.894347 277.000000
53.913829 264.000000
53.933312 261.000000
53.952794 233.000000
53.972277 232.000000
53.991759 267.000000
54.011241 242.000000
54.030724 278.000000
54.050206 258.000000
54.069688 275.000000
54.089171 279.000000
54.108653 282.000000
54.128135 260.000000
54.147618 276.000000
54.167100 295.000000
54.186583 300.000000
54.206065 271.000000
54.225547 256.000000
54.245030 274.000000
54.264512 251.000000
54.283994 248.000000
54.303477 264.000000
54.322959 252.000000
54.342442 284.000000
54.361924 300.000000
54.381406 268.000000
54.400889 235.000000
54.420371 259.000000
54.439853 263.000000
54.459336 231.000000
54.478818 263.000000
54.498300 240.000000
54.517783 272.000000
54.537265 271.000000
54.556748 279.000000
54.576230 272.000000
54.595712 266.000000
54.615195 241.000000
54.634677 229.000000
54.654159 276.000000
54.673642 254.000000
54.693124 285.000000
54.712607 264.000000
54.732089 271.000000
54.751571 244.000000
54.771054 229.000000
54.790536 249.000000
54.810018 274.000000
54.829501 280.000000
54.848983 289.000000
54.868465 267.000000
54.887948 270.000000
54.907430 290.000000
54.926913 282.000000
54.946395 262.000000
54.965877 286.000000
54.985360 285.000000
55.004842 274.000000
55.024324 277.000000
55.043807 280.000000
55.063289 261.000000
55.082772 292.000000
55.102254 277.000000
55.121736 287.000000
55.141219 289.000000
55.160701 277.000000
55.180183 270.000000
55.199666 271.000000
55.219148 241.000000
55.238630 270.000000
55.258113 269.000000
55.277595 274.000000
55.297078 255.000000
55.316560 255.000000
55.336042 279.000000
55.355525 246.000000
55.375007 266.000000
55.394489 261.000000
55.413972 286.000000
55.433454 275.000000
55.452937 245.000000
55.472419 261.000000
55.491901 273.000000
55.511384 271.000000
55.530866 269.000000
55.550348 227.000000
55.569831 259.000000
55.589313 256.000000
55.608796 250.000000
55.628278 268.000000
55.647760 269.000000
55.667243 241.000000
55.686725 267.000000
55.706207 283.000000
55.725690 256.000000
55.745172 222.000000
55.764654 279.000000
55.784137 264.000000
55.803619 267.000000
55.823102 293.000000
55.842584 290.000000
55.862066 244.000000
55.881549 272.000000
55.901031 298.000000
55.920513 251.000000
55.939996 251.000000
55.959478 251.000000
55.978961 276.000000
55.998443 278.000000
56.017925 257.000000
56.037408 256.000000
56.056890 248.000000
56.076372 301.000000
56.095855 250.000000
56.115337 283.000000
56.134819 270.000000
56.154302 283.000000
56.173784 242.000000
56.193267 241.000000
56.212749 275.000000
56.232231 293.000000
56.251714 277.000000
56.271196 264.000000
56.290678 276.000000
56.310161 262.000000
56.329643 252.000000
56.349126 229.000000
56.368608 260.000000
56.388090 260.000000
56.407573 264.000000
56.427055 263.000000
56.446537 250.000000
56.466020 262.000000
56.485502 297.000000
56.504984 262.000000
56.524467 253.000000
56.543949 255.000000
56.563432 276.000000
56.582914 258.000000
56.602396 288.000000
56.621879 269.000000
56.641361 259.000000
56.660843 280.000000
56.680326 301.000000
56.699808 283.000000
56.719291 285.000000
56.738773 258.000000
56.758255 272.000000
56.777738 293.000000
56.797220 285.000000
56.816702 272.000000
56.836185 284.000000
56.855667 325.000000
56.875149 299.000000
56.894632 306.000000
56.914114 364.000000
56.933597 415.000000
56.953079 457.000000
56.972561 381.000000
56.992044 342.000000
57.011526 337.000000
57.031008 308.000000
57.050491 344.000000
57.069973 342.000000
57.089456 309.000000
57.108938 354.000000
57.128420 332.000000
57.147903 313.000000
57.167385 320.000000
57.186867 308.000000
57.206350 258.000000
57.225832 280.000000
57.245315 262.000000
57.264797 281.000000
57.284279 261.000000
57.303762 284.000000
57.323244 304.000000
57.342726 281.000000
57.362209 288.000000
57.381691 260.000000
57.401173 289.000000
57.420656 281.000000
57.440138 280.000000
57.459621 241.000000
57.479103 260.000000
57.498585 271.000000
57.518068 288.000000
57.537550 273.000000
57.557032 313.000000
57.576515 253.000000
57.595997 269.000000
57.615480 261.000000
57.634962 261.000000
57.654444 278.000000
57.673927 279.000000
57.693409 267.000000
57.712891 277.000000
57.732374 252.000000
57.751856 281.000000
57.771338 289.000000
57.790821 250.000000
57.810303 297.000000
57.829786 290.000000
57.849268 274.000000
57.868750 269.000000
57.888233 274.000000
57.907715 291.000000
57.927197 267.000000
57.946680 253.000000
57.966162 266.000000
57.985645 263.000000
58.005127 260.000000
58.024609 255.000000
58.044092 311.000000
58.063574 242.000000
58.083056 269.000000
58.102539 244.000000
58.122021 261.000000
58.141503 284.000000
58.160986 268.000000
58.180468 268.000000
58.199951 274.000000
58.219433 275.000000
58.238915 249.000000
58.258398 253.000000
58.277880 276.000000
58.297362 276.000000
58.316845 255.000000
58.336327 256.000000
58.355810 253.000000
58.375292 270.000000
58.394774 277.000000
58.414257 263.000000
58.433739 271.000000
58.453221 285.000000
58.472704 276.000000
58.492186 282.000000
58.511668 279.000000
58.531151 295.000000
58.550633 247.000000
58.570116 275.000000
58.589598 247.000000
58.609080 270.000000
58.628563 301.000000
58.648045 275.000000
58.667527 249.000000
58.687010 264.000000
58.706492 250.000000
58.725975 277.000000
58.745457 249.000000
58.764939 264.000000
58.784422 247.000000
58.803904 247.000000
58.823386 280.000000
58.842869 259.000000
58.862351 287.000000
58.881834 280.000000
58.901316 231.000000
58.920798 268.000000
58.940281 256.000000
58.959763 239.000000
58.979245 255.000000
58.998728 266.000000
59.018210 234.000000
59.037692 293.000000
59.057175 274.000000
59.076657 290.000000
59.096140 230.000000
59.115622 275.000000
59.135104 280.000000
59.154587 268.000000
59.174069 247.000000
59.193551 254.000000
59.213034 272.000000
59.232516 254.000000
59.251999 268.000000
59.271481 255.000000
59.290963 286.000000
59.310446 269.000000
59.329928 255.000000
59.349410 280.000000
59.368893 279.000000
59.388375 274.000000
59.407857 262.000000
59.427340 250.000000
59.446822 281.000000
59.466305 252.000000
59.485787 272.000000
59.505269 266.000000
59.524752 258.000000
59.544234 261.000000
59.563716 249.000000
59.583199 239.000000
59.602681 273.000000
59.622164 272.000000
59.641646 289.000000
59.661128 254.000000
59.680611 269.000000
59.700093 286.000000
59.719575 268.000000
59.739058 293.000000
59.758540 248.000000
59.778022 278.000000
59.797505 252.000000
59.816987 258.000000
59.836470 298.000000
59.855952 254.000000
59.875434 263.000000
59.894917 280.000000
59.914399 295.000000
59.933881 266.000000
59.953364 271.000000
59.972846 285.000000
59.992329 251.000000
60.011811 280.000000
60.031293 267.000000
60.050776 262.000000
60.070258 286.000000
60.089740 274.000000
60.109223 268.000000
60.128705 278.000000
60.148187 254.000000
60.167670 262.000000
60.187152 290.000000
60.206635 272.000000
60.226117 286.000000
60.245599 261.000000
60.265082 264.000000
60.284564 248.000000
60.304046 264.000000
60.323529 285.000000
60.343011 293.000000
60.362494 274.000000
60.381976 229.000000
60.401458 249.000000
60.420941 269.000000
60.440423 286.000000
60.459905 268.000000
60.479388 261.000000
60.498870 270.000000
60.518352 273.000000
60.537835 267.000000
60.557317 256.000000
60.576800 264.000000
60.596282 233.000000
60.615764 252.000000
60.635247 296.000000
60.654729 233.000000
60.674211 296.000000
60.693694 271.000000
60.713176 295.000000
60.732659 279.000000
60.752141 299.000000
60.771623 272.000000
60.791106 267.000000
60.810588 245.000000
60.830070 272.000000
60.849553 269.000000
60.869035 248.000000
60.888518 291.000000
60.908000 289.000000
60.927482 275.000000
60.946965 275.000000
60.966447 281.000000
60.985929 284.000000
61.005412 255.000000
61.024894 294.000000
61.044376 294.000000
61.063859 278.000000
61.083341 276.000000
61.102824 245.000000
61.122306 265.000000
61.141788 303.000000
61.161271 275.000000
61.180753 247.000000
61.200235 317.000000
61.219718 275.000000
61.239200 290.000000
61.258683 297.000000
61.278165 262.000000
61.297647 276.000000
61.317130 280.000000
61.336612 327.000000
61.356094 266.000000
61.375577 272.000000
61.395059 294.000000
61.414541 268.000000
61.434024 266.000000
61.453506 278.000000
61.472989 265.000000
61.492471 291.000000
61.511953 255.000000
61.531436 268.000000
61.550918 263.000000
61.570400 266.000000
61.589883 278.000000
61.609365 287.000000
61.628848 325.000000
61.648330 267.000000
61.667812 256.000000
61.687295 267.000000
61.706777 290.000000
61.726259 284.000000
61.745742 251.000000
61.765224 267.000000
61.784706 262.000000
61.804189 281.000000
61.823671 224.000000
61.843154 235.000000
61.862636 295.000000
61.882118 275.000000
61.901601 279.000000
61.921083 290.000000
61.940565 293.000000
61.960048 271.000000
61.979530 245.000000
61.999013 274.000000
62.018495 298.000000
62.037977 262.000000
62.057460 281.000000
62.076942 260.000000
62.096424 288.000000
62.115907 271.000000
62.135389 287.000000
62.154871 261.000000
62.174354 281.000000
62.193836 284.000000
62.213319 230.000000
62.232801 253.000000
62.252283 274.000000
62.271766 240.000000
62.291248 252.000000
62.310730 270.000000
62.330213 285.000000
62.349695 285.000000
62.369178 294.000000
62.388660 290.000000
62.408142 284.000000
62.427625 298.000000
62.447107 354.000000
62.466589 315.000000
62.486072 360.000000
62.505554 355.000000
62.525037 431.000000
62.544519 422.000000
62.564001 367.000000
62.583484 345.000000
62.602966 317.000000
62.622448 315.000000
62.641931 330.000000
62.661413 329.000000
62.680895 314.000000
62.700378 336.000000
62.719860 325.000000
62.739343 329.000000
62.758825 328.000000
62.778307 301.000000
62.797790 293.000000
62.817272 271.000000
62.836754 289.000000
62.856237 281.000000
62.875719 271.000000
62.895202 275.000000
62.914684 268.000000
62.934166 275.000000
62.953649 243.000000
62.973131 275.000000
62.992613 262.000000
63.012096 264.000000
63.031578 259.000000
63.051060 258.000000
63.070543 245.000000
63.090025 259.000000
63.109508 263.000000
63.128990 258.000000
63.148472 264.000000
63.167955 263.000000
63.187437 283.000000
63.206919 265.000000
63.226402 286.000000
63.245884 272.000000
63.265367 263.000000
63.284849 285.000000
63.304331 245.000000
63.323814 249.000000
63.343296 244.000000
63.362778 274.000000
63.382261 279.000000
63.401743 310.000000
63.421225 266.000000
63.440708 274.000000
63.460190 295.000000
63.479673 278.000000
63.499155 274.000000
63.518637 255.000000
63.538120 315.000000
63.557602 265.000000
63.577084 283.000000
63.596567 323.000000
63.616049 267.000000
63.635532 264.000000
63.655014 260.000000
63.674496 287.000000
63.693979 251.000000
63.713461 261.000000
63.732943 271.000000
63.752426 283.000000
63.771908 261.000000
63.791390 252.000000
63.810873 284.000000
63.830355 267.000000
63.849838 274.000000
63.869320 282.000000
63.888802 253.000000
63.908285 285.000000
63.927767 284.000000
63.947249 281.000000
63.966732 264.000000
63.986214 268.000000
64.005697 221.000000
64.025179 268.000000
64.044661 254.000000
64.064144 295.000000
64.083626 300.000000
64.103108 244.000000
64.122591 305.000000
64.142073 275.000000
64.161556 275.000000
64.181038 275.000000
64.200520 266.000000
64.220003 286.000000
64.239485 265.000000
64.258967 270.000000
64.278450 274.000000
64.297932 289.000000
64.317414 255.000000
64.336897 276.000000
64.356379 246.000000
64.375862 281.000000
64.395344 280.000000
64.414826 272.000000
64.434309 268.000000
64.453791 286.000000
64.473273 273.000000
64.492756 281.000000
64.512238 279.000000
64.531721 290.000000
64.551203 283.000000
64.570685 256.000000
64.590168 272.000000
64.609650 303.000000
64.629132 264.000000
64.648615 270.000000
64.668097 271.000000
64.687579 277.000000
64.707062 266.000000
64.726544 248.000000
64.746027 282.000000
64.765509 273.000000
64.784991 270.000000
64.804474 270.000000
64.823956 270.000000
64.843438 277.000000
64.862921 284.000000
64.882403 284.000000
64.901886 262.000000
64.921368 256.000000
64.940850 283.000000
64.960333 259.000000
64.979815 274.000000
64.999297 257.000000
65.018780 238.000000
65.038262 241.000000
65.057744 255.000000
65.077227 290.000000
65.096709 291.000000
65.116192 233.000000
65.135674 281.000000
65.155156 258.000000
65.174639 265.000000
65.194121 264.000000
65.213603 259.000000
65.233086 252.000000
65.252568 291.000000
65.272051 273.000000
65.291533 232.000000
65.311015 264.000000
65.330498 248.000000
65.349980 248.000000
65.369462 265.000000
65.388945 317.000000
65.408427 244.000000
65.427909 276.000000
65.447392 280.000000
65.466874 295.000000
65.486357 270.000000
65.505839 256.000000
65.525321 243.000000
65.544804 259.000000
65.564286 264.000000
65.583768 271.000000
65.603251 265.000000
65.622733 279.000000
65.642216 269.000000
65.661698 296.000000
65.681180 293.000000
65.700663 295.000000
65.720145 293.000000
65.739627 307.000000
65.759110 318.000000
65.778592 309.000000
65.798075 303.000000
65.817557 315.000000
65.837039 313.000000
65.856522 316.000000
65.876004 309.000000
65.895486 277.000000
65.914969 293.000000
65.934451 270.000000
65.953933 279.000000
65.973416 285.000000
65.992898 252.000000
66.012381 288.000000
66.031863 275.000000
66.051345 313.000000
66.070828 271.000000
66.090310 253.000000
66.109792 271.000000
66.129275 301.000000
66.148757 247.000000
66.168240 292.000000
66.187722 273.000000
66.207204 262.000000
66.226687 289.000000
66.246169 283.000000
66.265651 270.000000
66.285134 287.000000
66.304616 260.000000
66.324098 290.000000
66.343581 249.000000
66.363063 248.000000
66.382546 274.000000
66.402028 295.000000
66.421510 249.000000
66.440993 261.000000
66.460475 246.000000
66.479957 261.000000
66.499440 266.000000
66.518922 282.000000
66.538405 259.000000
66.557887 263.000000
66.577369 287.000000
66.596852 281.000000
66.616334 287.000000
66.635816 304.000000
66.655299 296.000000
66.674781 288.000000
66.694263 287.000000
66.713746 273.000000
66.733228 281.000000
66.752711 248.000000
66.772193 259.000000
66.791675 264.000000
66.811158 232.000000
66.830640 257.000000
66.850122 283.000000
66.869605 277.000000
66.889087 284.000000
66.908570 258.000000
66.928052 262.000000
66.947534 268.000000
66.967017 250.000000
66.986499 263.000000
67.005981 297.000000
67.025464 244.000000
67.044946 271.000000
67.064428 260.000000
67.083911 271.000000
67.103393 278.000000
67.122876 263.000000
67.142358 247.000000
67.161840 284.000000
67.181323 280.000000
67.200805 274.000000
67.220287 271.000000
67.239770 270.000000
67.259252 262.000000
67.278735 269.000000
67.298217 287.000000
67.317699 261.000000
67.337182 276.000000
67.356664 245.000000
67.376146 274.000000
67.395629 260.000000
67.415111 259.000000
67.434593 263.000000
67.454076 290.000000
67.473558 285.000000
67.493041 265.000000
67.512523 263.000000
67.532005 269.000000
67.551488 257.000000
67.570970 266.000000
67.590452 283.000000
67.609935 279.000000
67.629417 269.000000
67.648900 263.000000
67.668382 265.000000
67.687864 286.000000
67.707347 271.000000
67.726829 274.000000
67.746311 289.000000
67.765794 248.000000
67.785276 253.000000
67.804759 272.000000
67.824241 286.000000
67.843723 305.000000
67.863206 270.000000
67.882688 272.000000
67.902170 278.000000
67.921653 301.000000
67.941135 281.000000
67.960617 253.000000
67.980100 284.000000
67.999582 254.000000
68.019065 278.000000
68.038547 267.000000
68.058029 259.000000
68.077512 264.000000
68.096994 282.000000
68.116476 247.000000
68.135959 288.000000
68.155441 265.000000
68.174924 277.000000
68.194406 283.000000
68.213888 278.000000
68.233371 260.000000
68.252853 268.000000
68.272335 255.000000
68.291818 261.000000
68.311300 288.000000
68.330782 290.000000
68.350265 281.000000
68.369747 263.000000
68.389230 273.000000
68.408712 316.000000
68.428194 264.000000
68.447677 296.000000
68.467159 284.000000
68.486641 306.000000
68.506124 285.000000
68.525606 275.000000
68.545089 289.000000
68.564571 262.000000
68.584053 279.000000
68.603536 280.000000
68.623018 273.000000
68.642500 277.000000
68.661983 300.000000
68.681465 275.000000
68.700947 278.000000
68.720430 284.000000
68.739912 270.000000
68.759395 250.000000
68.778877 273.000000
68.798359 264.000000
68.817842 263.000000
68.837324 285.000000
68.856806 272.000000
68.876289 269.000000
68.895771 281.000000
68.915254 282.000000
68.934736 263.000000
68.954218 262.000000
68.973701 267.000000
68.993183 250.000000
69.012665 288.000000
69.032148 285.000000
69.051630 261.000000
69.071112 298.000000
69.090595 245.000000
69.110077 278.000000
69.129560 250.000000
69.149042 273.000000
69.168524 254.000000
69.188007 295.000000
69.207489 294.000000
69.226971 332.000000
69.246454 305.000000
69.265936 288.000000
69.285419 289.000000
69.304901 265.000000
69.324383 298.000000
69.343866 283.000000
69.363348 281.000000
69.382830 283.000000
69.402313 236.000000
69.421795 281.000000
69.441278 277.000000
69.460760 286.000000
69.480242 298.000000
69.499725 254.000000
69.519207 285.000000
69.538689 268.000000
69.558172 247.000000
69.577654 282.000000
69.597136 274.000000
69.616619 256.000000
69.636101 259.000000
69.655584 273.000000
69.675066 270.000000
69.694548 267.000000
69.714031 303.000000
69.733513 292.000000
69.752995 286.000000
69.772478 310.000000
69.791960 308.000000
69.811443 265.000000
69.830925 250.000000
69.850407 263.000000
69.869890 291.000000
69.889372 284.000000
69.908854 268.000000
69.928337 271.000000
69.947819 280.000000
69.967301 290.000000
69.986784 298.000000
70.006266 249.000000
70.025749 257.000000
