4.000000 60.000000
4.019482 58.000000
4.038965 70.000000
4.058447 52.000000
4.077929 67.000000
4.097412 63.000000
4.116894 62.000000
4.136377 58.000000
4.155859 64.000000
4.175341 35.000000
4.194824 60.000000
4.214306 52.000000
4.233788 55.000000
4.253271 51.000000
4.272753 48.000000
4.292236 47.000000
4.311718 52.000000
4.331200 61.000000
4.350683 52.000000
4.370165 55.000000
4.389647 70.000000
4.409130 45.000000
4.428612 50.000000
4.448094 51.000000
4.467577 45.000000
4.487059 58.000000
4.506542 52.000000
4.526024 50.000000
4.545506 58.000000
4.564989 50.000000
4.584471 55.000000
4.603953 47.000000
4.623436 40.000000
4.642918 57.000000
4.662401 46.000000
4.681883 49.000000
4.701365 42.000000
4.720848 50.000000
4.740330 42.000000
4.759812 41.000000
4.779295 50.000000
4.798777 55.000000
4.818259 35.000000
4.837742 47.000000
4.857224 49.000000
4.876707 33.000000
4.896189 60.000000
4.915671 40.000000
4.935154 50.000000
4.954636 44.000000
4.974118 36.000000
4.993601 56.000000
5.013083 40.000000
5.032566 45.000000
5.052048 46.000000
5.071530 40.000000
5.091013 40.000000
5.110495 37.000000
5.129977 47.000000
5.149460 44.000000
5.168942 47.000000
5.188425 49.000000
5.207907 46.000000
5.227389 46.000000
5.246872 49.000000
5.266354 44.000000
5.285836 43.000000
5.305319 37.000000
5.324801 41.000000
5.344283 47.000000
5.363766 47.000000
5.383248 35.000000
5.402731 48.000000
5.422213 36.000000
5.441695 46.000000
5.461178 33.000000
5.480660 27.000000
5.500142 43.000000
5.519625 40.000000
5.539107 40.000000
5.558590 49.000000
5.578072 52.000000
5.597554 50.000000
5.617037 48.000000
5.636519 43.000000
5.656001 53.000000
5.675484 51.000000
5.694966 57.000000
5.714448 35.000000
5.733931 49.000000
5.753413 57.000000
5.772896 53.000000
5.792378 60.000000
5.811860 64.000000
5.831343 63.000000
5.850825 69.000000
5.870307 76.000000
5.889790 63.000000
5.909272 59.000000
5.928755 43.000000
5.948237 61.000000
5.967719 73.000000
5.987202 77.000000
6.006684 45.000000
6.026166 46.000000
6.045649 45.000000
6.065131 58.000000
6.084613 42.000000
6.104096 46.000000
6.123578 52.000000
6.143061 42.000000
6.162543 41.000000
6.182025 44.000000
6.201508 46.000000
6.220990 45.000000
6.240472 47.000000
6.259955 48.000000
6.279437 35.000000
6.298920 39.000000
6.318402 42.000000
6.337884 40.000000
6.357367 44.000000
6.376849 42.000000
6.396331 45.000000
6.415814 40.000000
6.435296 56.000000
6.454778 42.000000
6.474261 42.000000
6.493743 37.000000
6.513226 50.000000
6.532708 53.000000
6.552190 40.000000
6.571673 47.000000
6.591155 40.000000
6.610637 32.000000
6.630120 33.000000
6.649602 37.000000
6.669085 43.000000
6.688567 40.000000
6.708049 43.000000
6.727532 31.000000
6.747014 41.000000
6.766496 32.000000
6.785979 28.000000
6.805461 55.000000
6.824944 34.000000
6.844426 43.000000
6.863908 45.000000
6.883391 32.000000
6.902873 48.000000
6.922355 35.000000
6.941838 38.000000
6.961320 42.000000
6.980802 43.000000
7.000285 30.000000
7.019767 50.000000
7.039250 46.000000
7.058732 42.000000
7.078214 36.000000
7.097697 44.000000
7.117179 37.000000
7.136661 46.000000
7.156144 54.000000
7.175626 45.000000
7.195109 40.000000
7.214591 41.000000
7.234073 49.000000
7.253556 39.000000
7.273038 47.000000
7.292520 42.000000
7.312003 37.000000
7.331485 31.000000
7.350967 50.000000
7.370450 40.000000
7.389932 38.000000
7.409415 30.000000
7.428897 52.000000
7.448379 37.000000
7.467862 51.000000
7.487344 37.000000
7.506826 52.000000
7.526309 31.000000
7.545791 41.000000
7.565274 38.000000
7.584756 44.000000
7.604238 47.000000
7.623721 46.000000
7.643203 36.000000
7.662685 45.000000
7.682168 46.000000
7.701650 50.000000
7.721132 38.000000
7.740615 48.000000
7.760097 41.000000
7.779580 38.000000
7.799062 40.000000
7.818544 42.000000
7.838027 38.000000
7.857509 40.000000
7.876991 32.000000
7.896474 45.000000
7.915956 35.000000
7.935439 36.000000
7.954921 42.000000
7.974403 35.000000
7.993886 35.000000
8.013368 44.000000
8.032850 35.000000
8.052333 37.000000
8.071815 34.000000
8.091297 41.000000
8.110780 40.000000
8.130262 39.000000
8.149745 45.000000
8.169227 29.000000
8.188709 26.000000
8.208192 40.000000
8.227674 48.000000
8.247156 38.000000
8.266639 41.000000
8.286121 43.000000
8.305604 46.000000
8.325086 38.000000
8.344568 35.000000
8.364051 28.000000
8.383533 40.000000
8.403015 37.000000
8.422498 37.000000
8.441980 30.000000
8.461463 40.000000
8.480945 45.000000
8.500427 56.000000
8.519910 41.000000
8.539392 44.000000
8.558874 35.000000
8.578357 40.000000
8.597839 38.000000
8.617321 33.000000
8.636804 44.000000
8.656286 31.000000
8.675769 45.000000
8.695251 42.000000
8.714733 46.000000
8.734216 46.000000
8.753698 43.000000
8.773180 38.000000
8.792663 42.000000
8.812145 27.000000
8.831628 42.000000
8.851110 40.000000
8.870592 42.000000
8.890075 56.000000
8.909557 43.000000
8.929039 25.000000
8.948522 43.000000
8.968004 57.000000
8.987486 37.000000
9.006969 43.000000
9.026451 45.000000
9.045934 37.000000
9.065416 44.000000
9.084898 30.000000
9.104381 42.000000
9.123863 46.000000
9.143345 38.000000
9.162828 35.000000
9.182310 47.000000
9.201793 34.000000
9.221275 46.000000
9.240757 40.000000
9.260240 37.000000
9.279722 50.000000
9.299204 32.000000
9.318687 36.000000
9.338169 35.000000
9.357651 48.000000
9.377134 48.000000
9.396616 48.000000
9.416099 49.000000
9.435581 60.000000
9.455063 62.000000
9.474546 44.000000
9.494028 50.000000
9.513510 39.000000
9.532993 48.000000
9.552475 55.000000
9.571958 39.000000
9.591440 50.000000
9.610922 38.000000
9.630405 30.000000
9.649887 37.000000
9.669369 33.000000
9.688852 32.000000
9.708334 36.000000
9.727816 36.000000
9.747299 45.000000
9.766781 66.000000
9.786264 44.000000
9.805746 21.000000
9.825228 35.000000
9.844711 42.000000
9.864193 36.000000
9.883675 37.000000
9.903158 30.000000
9.922640 43.000000
9.942123 36.000000
9.961605 29.000000
9.981087 41.000000
10.000570 41.000000
10.020052 43.000000
10.039534 49.000000
10.059017 31.000000
10.078499 42.000000
10.097982 43.000000
10.117464 22.000000
10.136946 34.000000
10.156429 32.000000
10.175911 46.000000
10.195393 33.000000
10.214876 38.000000
10.234358 45.000000
10.253840 22.000000
10.273323 42.000000
10.292805 43.000000
10.312288 45.000000
10.331770 39.000000
10.351252 30.000000
10.370735 25.000000
10.390217 54.000000
10.409699 63.000000
10.429182 37.000000
10.448664 34.000000
10.468147 46.000000
10.487629 38.000000
10.507111 51.000000
10.526594 43.000000
10.546076 28.000000
10.565558 37.000000
10.585041 38.000000
10.604523 38.000000
10.624005 37.000000
10.643488 37.000000
10.662970 32.000000
10.682453 28.000000
10.701935 49.000000
10.721417 47.000000
10.740900 34.000000
10.760382 40.000000
10.779864 39.000000
10.799347 43.000000
10.818829 54.000000
10.838312 50.000000
10.857794 38.000000
10.877276 33.000000
10.896759 36.000000
10.916241 40.000000
10.935723 42.000000
10.955206 45.000000
10.974688 41.000000
10.994170 47.000000
11.013653 41.000000
11.033135 37.000000
11.052618 55.000000
11.072100 42.000000
11.091582 29.000000
11.111065 32.000000
11.130547 36.000000
11.150029 30.000000
11.169512 41.000000
11.188994 44.000000
11.208477 37.000000
11.227959 31.000000
11.247441 44.000000
11.266924 48.000000
11.286406 36.000000
11.305888 47.000000
11.325371 38.000000
11.344853 42.000000
11.364335 31.000000
11.383818 31.000000
11.403300 35.000000
11.422783 37.000000
11.442265 35.000000
11.461747 57.000000
11.481230 34.000000
11.500712 42.000000
11.520194 37.000000
11.539677 31.000000
11.559159 37.000000
11.578642 44.000000
11.598124 38.000000
11.617606 33.000000
11.637089 31.000000
11.656571 43.000000
11.676053 35.000000
11.695536 39.000000
11.715018 42.000000
11.734500 33.000000
11.753983 46.000000
11.773465 33.000000
11.792948 28.000000
11.812430 46.000000
11.831912 37.000000
11.851395 42.000000
11.870877 38.000000
11.890359 42.000000
11.909842 42.000000
11.929324 37.000000
11.948807 41.000000
11.968289 35.000000
11.987771 44.000000
12.007254 35.000000
12.026736 45.000000
12.046218 45.000000
12.065701 28.000000
12.085183 45.000000
12.104666 38.000000
12.124148 41.000000
12.143630 43.000000
12.163113 40.000000
12.182595 41.000000
12.202077 37.000000
12.221560 33.000000
12.241042 38.000000
12.260524 40.000000
12.280007 44.000000
12.299489 39.000000
12.318972 39.000000
12.338454 29.000000
12.357936 42.000000
12.377419 42.000000
12.396901 48.000000
12.416383 53.000000
12.435866 44.000000
12.455348 46.000000
12.474831 51.000000
12.494313 46.000000
12.513795 51.000000
12.533278 42.000000
12.552760 42.000000
12.572242 27.000000
12.591725 30.000000
12.611207 38.000000
12.630689 43.000000
12.650172 36.000000
12.669654 37.000000
12.689137 37.000000
12.708619 38.000000
12.728101 41.000000
12.747584 51.000000
12.767066 48.000000
12.786548 52.000000
12.806031 41.000000
12.825513 47.000000
12.844996 52.000000
12.864478 38.000000
12.883960 39.000000
12.903443 52.000000
12.922925 36.000000
12.942407 48.000000
12.961890 41.000000
12.981372 45.000000
13.000854 30.000000
13.020337 52.000000
13.039819 29.000000
13.059302 32.000000
13.078784 34.000000
13.098266 40.000000
13.117749 41.000000
13.137231 47.000000
13.156713 35.000000
13.176196 35.000000
13.195678 35.000000
13.215161 54.000000
13.234643 36.000000
13.254125 36.000000
13.273608 44.000000
13.293090 37.000000
13.312572 38.000000
13.332055 36.000000
13.351537 35.000000
13.371019 33.000000
13.390502 38.000000
13.409984 43.000000
13.429467 43.000000
13.448949 44.000000
13.468431 30.000000
13.487914 38.000000
13.507396 35.000000
13.526878 39.000000
13.546361 40.000000
13.565843 34.000000
13.585326 38.000000
13.604808 37.000000
13.624290 37.000000
13.643773 36.000000
13.663255 46.000000
13.682737 42.000000
13.702220 34.000000
13.721702 48.000000
13.741185 47.000000
13.760667 48.000000
13.780149 33.000000
13.799632 44.000000
13.819114 34.000000
13.838596 35.000000
13.858079 44.000000
13.877561 42.000000
13.897043 38.000000
13.916526 42.000000
13.936008 51.000000
13.955491 37.000000
13.974973 27.000000
13.994455 39.000000
14.013938 30.000000
14.033420 37.000000
14.052902 32.000000
14.072385 39.000000
14.091867 50.000000
14.111350 35.000000
14.130832 38.000000
14.150314 37.000000
14.169797 43.000000
14.189279 29.000000
14.208761 28.000000
14.228244 44.000000
14.247726 30.000000
14.267208 50.000000
14.286691 33.000000
14.306173 33.000000
14.325656 39.000000
14.345138 33.000000
14.364620 35.000000
14.384103 43.000000
14.403585 32.000000
14.423067 46.000000
14.442550 35.000000
14.462032 41.000000
14.481515 36.000000
14.500997 36.000000
14.520479 46.000000
14.539962 28.000000
14.559444 41.000000
14.578926 40.000000
14.598409 40.000000
14.617891 43.000000
14.637373 38.000000
14.656856 43.000000
14.676338 36.000000
14.695821 43.000000
14.715303 29.000000
14.734785 36.000000
14.754268 35.000000
14.773750 46.000000
14.793232 31.000000
14.812715 38.000000
14.832197 48.000000
14.851680 42.000000
14.871162 35.000000
14.890644 47.000000
14.910127 36.000000
14.929609 44.000000
14.949091 30.000000
14.968574 33.000000
14.988056 45.000000
15.007538 45.000000
15.027021 36.000000
15.046503 42.000000
15.065986 40.000000
15.085468 41.000000
15.104950 33.000000
15.124433 31.000000
15.143915 44.000000
15.163397 39.000000
15.182880 35.000000
15.202362 35.000000
15.221845 34.000000
15.241327 41.000000
15.260809 46.000000
15.280292 44.000000
15.299774 33.000000
15.319256 34.000000
15.338739 33.000000
15.358221 23.000000
15.377704 45.000000
15.397186 51.000000
15.416668 38.000000
15.436151 47.000000
15.455633 31.000000
15.475115 35.000000
15.494598 30.000000
15.514080 43.000000
15.533562 41.000000
15.553045 29.000000
15.572527 37.000000
15.592010 32.000000
15.611492 39.000000
15.630974 35.000000
15.650457 36.000000
15.669939 36.000000
15.689421 50.000000
15.708904 31.000000
15.728386 42.000000
15.747869 35.000000
15.767351 43.000000
15.786833 39.000000
15.806316 38.000000
15.825798 48.000000
15.845280 31.000000
15.864763 46.000000
15.884245 46.000000
15.903727 44.000000
15.923210 45.000000
15.942692 41.000000
15.962175 41.000000
15.981657 27.000000
16.001139 36.000000
16.020622 43.000000
16.040104 34.000000
16.059586 53.000000
16.079069 28.000000
16.098551 37.000000
16.118034 27.000000
16.137516 37.000000
16.156998 40.000000
16.176481 37.000000
16.195963 25.000000
16.215445 41.000000
16.234928 44.000000
16.254410 44.000000
16.273892 36.000000
16.293375 46.000000
16.312857 45.000000
16.332340 33.000000
16.351822 40.000000
16.371304 30.000000
16.390787 40.000000
16.410269 41.000000
16.429751 44.000000
16.449234 29.000000
16.468716 32.000000
16.488199 44.000000
16.507681 48.000000
16.527163 37.000000
16.546646 44.000000
16.566128 48.000000
16.585610 40.000000
16.605093 45.000000
16.624575 43.000000
16.644057 42.000000
16.663540 48.000000
16.683022 37.000000
16.702505 38.000000
16.721987 42.000000
16.741469 33.000000
16.760952 36.000000
16.780434 42.000000
16.799916 30.000000
16.819399 43.000000
16.838881 38.000000
16.858364 38.000000
16.877846 43.000000
16.897328 28.000000
16.916811 44.000000
16.936293 33.000000
16.955775 40.000000
16.975258 45.000000
16.994740 37.000000
17.014222 41.000000
17.033705 38.000000
17.053187 30.000000
17.072670 39.000000
17.092152 31.000000
17.111634 39.000000
17.131117 36.000000
17.150599 46.000000
17.170081 56.000000
17.189564 32.000000
17.209046 48.000000
17.228529 29.000000
17.248011 32.000000
17.267493 32.000000
17.286976 33.000000
17.306458 34.000000
17.325940 35.000000
17.345423 40.000000
17.364905 40.000000
17.384388 40.000000
17.403870 47.000000
17.423352 43.000000
17.442835 40.000000
17.462317 28.000000
17.481799 43.000000
17.501282 42.000000
17.520764 37.000000
17.540246 33.000000
17.559729 34.000000
17.579211 34.000000
17.598694 37.000000
17.618176 25.000000
17.637658 51.000000
17.657141 42.000000
17.676623 41.000000
17.696105 29.000000
17.715588 32.000000
17.735070 33.000000
17.754553 42.000000
17.774035 40.000000
17.793517 38.000000
17.813000 43.000000
17.832482 29.000000
17.851964 35.000000
17.871447 39.000000
17.890929 34.000000
17.910411 45.000000
17.929894 37.000000
17.949376 43.000000
17.968859 48.000000
17.988341 37.000000
18.007823 34.000000
18.027306 25.000000
18.046788 43.000000
18.066270 46.000000
18.085753 37.000000
18.105235 32.000000
18.124718 44.000000
18.144200 37.000000
18.163682 40.000000
18.183165 32.000000
18.202647 44.000000
18.222129 45.000000
18.241612 38.000000
18.261094 50.000000
18.280576 54.000000
18.300059 47.000000
18.319541 54.000000
18.339024 42.000000
18.358506 46.000000
18.377988 55.000000
18.397471 39.000000
18.416953 31.000000
18.436435 38.000000
18.455918 36.000000
18.475400 38.000000
18.494883 37.000000
18.514365 47.000000
18.533847 37.000000
18.553330 45.000000
18.572812 40.000000
18.592294 48.000000
18.611777 45.000000
18.631259 36.000000
18.650741 43.000000
18.670224 40.000000
18.689706 34.000000
18.709189 43.000000
18.728671 34.000000
18.748153 27.000000
18.767636 41.000000
18.787118 41.000000
18.806600 39.000000
18.826083 42.000000
18.845565 28.000000
18.865048 47.000000
18.884530 44.000000
18.904012 43.000000
18.923495 46.000000
18.942977 28.000000
18.962459 49.000000
18.981942 50.000000
19.001424 53.000000
19.020907 31.000000
19.040389 35.000000
19.059871 36.000000
19.079354 35.000000
19.098836 38.000000
19.118318 46.000000
19.137801 49.000000
19.157283 34.000000
19.176765 35.000000
19.196248 33.000000
19.215730 33.000000
19.235213 34.000000
19.254695 42.000000
19.274177 44.000000
19.293660 42.000000
19.313142 50.000000
19.332624 38.000000
19.352107 42.000000
19.371589 48.000000
19.391072 50.000000
19.410554 41.000000
19.430036 37.000000
19.449519 40.000000
19.469001 34.000000
19.488483 37.000000
19.507966 29.000000
19.527448 43.000000
19.546930 49.000000
19.566413 41.000000
19.585895 42.000000
19.605378 27.000000
19.624860 30.000000
19.644342 52.000000
19.663825 35.000000
19.683307 39.000000
19.702789 34.000000
19.722272 39.000000
19.741754 42.000000
19.761237 35.000000
19.780719 41.000000
19.800201 33.000000
19.819684 55.000000
19.839166 29.000000
19.858648 34.000000
19.878131 49.000000
19.897613 33.000000
19.917095 41.000000
19.936578 37.000000
19.956060 36.000000
19.975543 31.000000
19.995025 33.000000
20.014507 41.000000
20.033990 46.000000
20.053472 49.000000
20.072954 45.000000
20.092437 34.000000
20.111919 36.000000
20.131402 32.000000
20.150884 41.000000
20.170366 43.000000
20.189849 38.000000
20.209331 33.000000
20.228813 37.000000
20.248296 35.000000
20.267778 46.000000
20.287260 40.000000
20.306743 40.000000
20.326225 38.000000
20.345708 45.000000
20.365190 43.000000
20.384672 43.000000
20.404155 41.000000
20.423637 34.000000
20.443119 30.000000
20.462602 33.000000
20.482084 39.000000
20.501567 33.000000
20.521049 48.000000
20.540531 44.000000
20.560014 42.000000
20.579496 45.000000
20.598978 42.000000
20.618461 34.000000
20.637943 50.000000
20.657426 42.000000
20.676908 48.000000
20.696390 41.000000
20.715873 43.000000
20.735355 45.000000
20.754837 34.000000
20.774320 30.000000
20.793802 43.000000
20.813284 52.000000
20.832767 36.000000
20.852249 37.000000
20.871732 36.000000
20.891214 40.000000
20.910696 43.000000
20.930179 35.000000
20.949661 36.000000
20.969143 40.000000
20.988626 42.000000
21.008108 30.000000
21.027591 32.000000
21.047073 33.000000
21.066555 41.000000
21.086038 43.000000
21.105520 44.000000
21.125002 54.000000
21.144485 35.000000
21.163967 36.000000
21.183449 35.000000
21.202932 43.000000
21.222414 48.000000
21.241897 42.000000
21.261379 40.000000
21.280861 37.000000
21.300344 44.000000
21.319826 51.000000
21.339308 49.000000
21.358791 48.000000
21.378273 38.000000
21.397756 24.000000
21.417238 45.000000
21.436720 31.000000
21.456203 40.000000
21.475685 34.000000
21.495167 34.000000
21.514650 42.000000
21.534132 44.000000
21.553614 38.000000
21.573097 50.000000
21.592579 42.000000
21.612062 39.000000
21.631544 40.000000
21.651026 41.000000
21.670509 37.000000
21.689991 48.000000
21.709473 54.000000
21.728956 50.000000
21.748438 45.000000
21.767921 34.000000
21.787403 39.000000
21.806885 31.000000
21.826368 47.000000
21.845850 30.000000
21.865332 42.000000
21.884815 44.000000
21.904297 35.000000
21.923779 29.000000
21.943262 42.000000
21.962744 43.000000
21.982227 47.000000
22.001709 40.000000
22.021191 43.000000
22.040674 34.000000
22.060156 38.000000
22.079638 33.000000
22.099121 33.000000
22.118603 46.000000
22.138086 27.000000
22.157568 39.000000
22.177050 43.000000
22.196533 36.000000
22.216015 34.000000
22.235497 49.000000
22.254980 38.000000
22.274462 43.000000
22.293945 34.000000
22.313427 38.000000
22.332909 44.000000
22.352392 35.000000
22.371874 35.000000
22.391356 35.000000
22.410839 45.000000
22.430321 39.000000
22.449803 34.000000
22.469286 31.000000
22.488768 41.000000
22.508251 47.000000
22.527733 28.000000
22.547215 43.000000
22.566698 32.000000
22.586180 34.000000
22.605662 35.000000
22.625145 46.000000
22.644627 49.000000
22.664110 36.000000
22.683592 45.000000
22.703074 41.000000
22.722557 42.000000
22.742039 43.000000
22.761521 46.000000
22.781004 35.000000
22.800486 29.000000
22.819968 36.000000
22.839451 23.000000
22.858933 36.000000
22.878416 34.000000
22.897898 32.000000
22.917380 51.000000
22.936863 47.000000
22.956345 44.000000
22.975827 58.000000
22.995310 34.000000
23.014792 42.000000
23.034275 36.000000
23.053757 44.000000
23.073239 44.000000
23.092722 40.000000
23.112204 51.000000
23.131686 53.000000
23.151169 44.000000
23.170651 31.000000
23.190133 31.000000
23.209616 48.000000
23.229098 41.000000
23.248581 36.000000
23.268063 43.000000
23.287545 48.000000
23.307028 34.000000
23.326510 49.000000
23.345992 49.000000
23.365475 48.000000
23.384957 41.000000
23.404440 38.000000
23.423922 42.000000
23.443404 45.000000
23.462887 53.000000
23.482369 45.000000
23.501851 33.000000
23.521334 24.000000
23.540816 41.000000
23.560298 39.000000
23.579781 46.000000
23.599263 29.000000
23.618746 40.000000
23.638228 31.000000
23.657710 43.000000
23.677193 37.000000
23.696675 38.000000
23.716157 48.000000
23.735640 38.000000
23.755122 47.000000
23.774605 40.000000
23.794087 60.000000
23.813569 30.000000
23.833052 35.000000
23.852534 48.000000
23.872016 42.000000
23.891499 40.000000
23.910981 38.000000
23.930463 29.000000
23.949946 45.000000
23.969428 45.000000
23.988911 33.000000
24.008393 39.000000
24.027875 36.000000
24.047358 35.000000
24.066840 40.000000
24.086322 38.000000
24.105805 41.000000
24.125287 40.000000
24.144770 28.000000
24.164252 33.000000
24.183734 24.000000
24.203217 37.000000
24.222699 43.000000
24.242181 41.000000
24.261664 39.000000
24.281146 39.000000
24.300629 36.000000
24.320111 28.000000
24.339593 48.000000
24.359076 49.000000
24.378558 39.000000
24.398040 42.000000
24.417523 41.000000
24.437005 40.000000
24.456487 39.000000
24.475970 42.000000
24.495452 47.000000
24.514935 35.000000
24.534417 32.000000
24.553899 45.000000
24.573382 47.000000
24.592864 39.000000
24.612346 41.000000
24.631829 38.000000
24.651311 37.000000
24.670794 39.000000
24.690276 38.000000
24.709758 34.000000
24.729241 34.000000
24.748723 42.000000
24.768205 44.000000
24.787688 39.000000
24.807170 29.000000
24.826652 40.000000
24.846135 41.000000
24.865617 35.000000
24.885100 29.000000
24.904582 40.000000
24.924064 34.000000
24.943547 35.000000
24.963029 33.000000
24.982511 47.000000
25.001994 42.000000
25.021476 35.000000
25.040959 40.000000
25.060441 41.000000
25.079923 39.000000
25.099406 41.000000
25.118888 59.000000
25.138370 48.000000
25.157853 24.000000
25.177335 46.000000
25.196817 48.000000
25.216300 31.000000
25.235782 35.000000
25.255265 45.000000
25.274747 50.000000
25.294229 35.000000
25.313712 43.000000
25.333194 31.000000
25.352676 40.000000
25.372159 37.000000
25.391641 38.000000
25.411124 32.000000
25.430606 44.000000
25.450088 34.000000
25.469571 41.000000
25.489053 35.000000
25.508535 40.000000
25.528018 34.000000
25.547500 41.000000
25.566982 42.000000
25.586465 44.000000
25.605947 40.000000
25.625430 43.000000
25.644912 40.000000
25.664394 44.000000
25.683877 39.000000
25.703359 38.000000
25.722841 29.000000
25.742324 48.000000
25.761806 30.000000
25.781289 48.000000
25.800771 54.000000
25.820253 34.000000
25.839736 19.000000
25.859218 36.000000
25.878700 41.000000
25.898183 43.000000
25.917665 40.000000
25.937148 34.000000
25.956630 52.000000
25.976112 44.000000
25.995595 35.000000
26.015077 41.000000
26.034559 38.000000
26.054042 31.000000
26.073524 30.000000
26.093006 39.000000
26.112489 43.000000
26.131971 40.000000
26.151454 36.000000
26.170936 44.000000
26.190418 33.000000
26.209901 48.000000
26.229383 44.000000
26.248865 40.000000
26.268348 39.000000
26.287830 36.000000
26.307313 44.000000
26.326795 35.000000
26.346277 37.000000
26.365760 39.000000
26.385242 47.000000
26.404724 52.000000
26.424207 35.000000
26.443689 45.000000
26.463171 45.000000
26.482654 52.000000
26.502136 45.000000
26.521619 38.000000
26.541101 45.000000
26.560583 47.000000
26.580066 43.000000
26.599548 50.000000
26.619030 45.000000
26.638513 53.000000
26.657995 68.000000
26.677478 56.000000
26.696960 57.000000
26.716442 48.000000
26.735925 33.000000
26.755407 39.000000
26.774889 45.000000
26.794372 42.000000
26.813854 41.000000
26.833336 37.000000
26.852819 48.000000
26.872301 36.000000
26.891784 27.000000
26.911266 43.000000
26.930748 29.000000
26.950231 34.000000
26.969713 47.000000
26.989195 41.000000
27.008678 51.000000
27.028160 34.000000
27.047643 33.000000
27.067125 49.000000
27.086607 42.000000
27.106090 39.000000
27.125572 35.000000
27.145054 42.000000
27.164537 42.000000
27.184019 54.000000
27.203501 39.000000
27.222984 42.000000
27.242466 38.000000
27.261949 38.000000
27.281431 44.000000
27.300913 39.000000
27.320396 37.000000
27.339878 40.000000
27.359360 51.000000
27.378843 28.000000
27.398325 35.000000
27.417808 37.000000
27.437290 42.000000
27.456772 49.000000
27.476255 47.000000
27.495737 46.000000
27.515219 42.000000
27.534702 26.000000
27.554184 41.000000
27.573667 38.000000
27.593149 46.000000
27.612631 46.000000
27.632114 44.000000
27.651596 35.000000
27.671078 42.000000
27.690561 37.000000
27.710043 27.000000
27.729525 39.000000
27.749008 33.000000
27.768490 40.000000
27.787973 35.000000
27.807455 52.000000
27.826937 38.000000
27.846420 40.000000
27.865902 37.000000
27.885384 40.000000
27.904867 37.000000
27.924349 37.000000
27.943832 43.000000
27.963314 45.000000
27.982796 31.000000
28.002279 38.000000
28.021761 47.000000
28.041243 39.000000
28.060726 50.000000
28.080208 37.000000
28.099690 36.000000
28.119173 44.000000
28.138655 37.000000
28.158138 46.000000
28.177620 43.000000
28.197102 47.000000
28.216585 33.000000
28.236067 42.000000
28.255549 57.000000
28.275032 41.000000
28.294514 42.000000
28.313997 37.000000
28.333479 42.000000
28.352961 50.000000
28.372444 35.000000
28.391926 42.000000
28.411408 48.000000
28.430891 47.000000
28.450373 29.000000
28.469855 44.000000
28.489338 29.000000
28.508820 42.000000
28.528303 38.000000
28.547785 42.000000
28.567267 48.000000
28.586750 44.000000
28.606232 53.000000
28.625714 38.000000
28.645197 55.000000
28.664679 44.000000
28.684162 33.000000
28.703644 39.000000
28.723126 36.000000
28.742609 40.000000
28.762091 43.000000
28.781573 31.000000
28.801056 43.000000
28.820538 39.000000
28.840020 37.000000
28.859503 48.000000
28.878985 41.000000
28.898468 29.000000
28.917950 52.000000
28.937432 56.000000
28.956915 46.000000
28.976397 38.000000
28.995879 41.000000
29.015362 40.000000
29.034844 51.000000
29.054327 43.000000
29.073809 41.000000
29.093291 29.000000
29.112774 39.000000
29.132256 38.000000
29.151738 45.000000
29.171221 40.000000
29.190703 46.000000
29.210185 37.000000
29.229668 38.000000
29.249150 39.000000
29.268633 36.000000
29.288115 39.000000
29.307597 45.000000
29.327080 53.000000
29.346562 61.000000
29.366044 76.000000
29.385527 87.000000
29.405009 81.000000
29.424492 90.000000
29.443974 81.000000
29.463456 79.000000
29.482939 63.000000
29.502421 47.000000
29.521903 54.000000
29.541386 40.000000
29.560868 50.000000
29.580351 45.000000
29.599833 40.000000
29.619315 50.000000
29.638798 55.000000
29.658280 34.000000
29.677762 55.000000
29.697245 40.000000
29.716727 45.000000
29.736209 42.000000
29.755692 51.000000
29.775174 44.000000
29.794657 34.000000
29.814139 43.000000
29.833621 39.000000
29.853104 45.000000
29.872586 32.000000
29.892068 41.000000
29.911551 34.000000
29.931033 36.000000
29.950516 34.000000
29.969998 51.000000
29.989480 39.000000
30.008963 60.000000
30.028445 68.000000
30.047927 72.000000
30.067410 78.000000
30.086892 70.000000
30.106374 64.000000
30.125857 59.000000
30.145339 46.000000
30.164822 57.000000
30.184304 40.000000
30.203786 40.000000
30.223269 48.000000
30.242751 39.000000
30.262233 51.000000
30.281716 41.000000
30.301198 44.000000
30.320681 40.000000
30.340163 40.000000
30.359645 37.000000
30.379128 52.000000
30.398610 47.000000
30.418092 49.000000
30.437575 42.000000
30.457057 52.000000
30.476539 36.000000
30.496022 32.000000
30.515504 42.000000
30.534987 41.000000
30.554469 31.000000
30.573951 45.000000
30.593434 46.000000
30.612916 42.000000
30.632398 36.000000
30.651881 43.000000
30.671363 33.000000
30.690846 42.000000
30.710328 40.000000
30.729810 30.000000
30.749293 39.000000
30.768775 32.000000
30.788257 41.000000
30.807740 33.000000
30.827222 44.000000
30.846704 46.000000
30.866187 32.000000
30.885669 43.000000
30.905152 42.000000
30.924634 51.000000
30.944116 41.000000
30.963599 42.000000
30.983081 47.000000
31.002563 33.000000
31.022046 42.000000
31.041528 42.000000
31.061011 40.000000
31.080493 41.000000
31.099975 42.000000
31.119458 31.000000
31.138940 38.000000
31.158422 38.000000
31.177905 45.000000
31.197387 38.000000
31.216870 37.000000
31.236352 51.000000
31.255834 48.000000
31.275317 43.000000
31.294799 40.000000
31.314281 43.000000
31.333764 39.000000
31.353246 21.000000
31.372728 40.000000
31.392211 42.000000
31.411693 36.000000
31.431176 34.000000
31.450658 43.000000
31.470140 52.000000
31.489623 37.000000
31.509105 57.000000
31.528587 37.000000
31.548070 45.000000
31.567552 52.000000
31.587035 36.000000
31.606517 37.000000
31.625999 38.000000
31.645482 40.000000
31.664964 38.000000
31.684446 27.000000
31.703929 48.000000
31.723411 44.000000
31.742893 40.000000
31.762376 35.000000
31.781858 39.000000
31.801341 23.000000
31.820823 33.000000
31.840305 36.000000
31.859788 38.000000
31.879270 38.000000
31.898752 49.000000
31.918235 41.000000
31.937717 45.000000
31.957200 42.000000
31.976682 32.000000
31.996164 33.000000
32.015647 31.000000
32.035129 52.000000
32.054611 46.000000
32.074094 36.000000
32.093576 48.000000
32.113058 37.000000
32.132541 54.000000
32.152023 40.000000
32.171506 38.000000
32.190988 42.000000
32.210470 45.000000
32.229953 26.000000
32.249435 48.000000
32.268917 30.000000
32.288400 35.000000
32.307882 30.000000
32.327365 34.000000
32.346847 38.000000
32.366329 37.000000
32.385812 40.000000
32.405294 34.000000
32.424776 43.000000
32.444259 41.000000
32.463741 44.000000
32.483223 43.000000
32.502706 44.000000
32.522188 35.000000
32.541671 42.000000
32.561153 39.000000
32.580635 27.000000
32.600118 36.000000
32.619600 43.000000
32.639082 42.000000
32.658565 43.000000
32.678047 46.000000
32.697530 34.000000
32.717012 33.000000
32.736494 31.000000
32.755977 31.000000
32.775459 61.000000
32.794941 33.000000
32.814424 35.000000
32.833906 49.000000
32.853389 49.000000
32.872871 51.000000
32.892353 43.000000
32.911836 37.000000
32.931318 46.000000
32.950800 41.000000
32.970283 44.000000
32.989765 40.000000
33.009247 53.000000
33.028730 45.000000
33.048212 40.000000
33.067695 31.000000
33.087177 49.000000
33.106659 49.000000
33.126142 47.000000
33.145624 46.000000
33.165106 42.000000
33.184589 41.000000
33.204071 46.000000
33.223554 58.000000
33.243036 63.000000
33.262518 50.000000
33.282001 62.000000
33.301483 57.000000
33.320965 54.000000
33.340448 47.000000
33.359930 50.000000
33.379412 47.000000
33.398895 34.000000
33.418377 35.000000
33.437860 43.000000
33.457342 51.000000
33.476824 40.000000
33.496307 49.000000
33.515789 39.000000
33.535271 49.000000
33.554754 47.000000
33.574236 29.000000
33.593719 43.000000
33.613201 33.000000
33.632683 45.000000
33.652166 40.000000
33.671648 37.000000
33.691130 39.000000
33.710613 34.000000
33.730095 52.000000
33.749577 52.000000
33.769060 38.000000
33.788542 46.000000
33.808025 43.000000
33.827507 42.000000
33.846989 42.000000
33.866472 30.000000
33.885954 45.000000
33.905436 38.000000
33.924919 38.000000
33.944401 48.000000
33.963884 40.000000
33.983366 39.000000
34.002848 35.000000
34.022331 30.000000
34.041813 39.000000
34.061295 52.000000
34.080778 38.000000
34.100260 58.000000
34.119742 33.000000
34.139225 46.000000
34.158707 50.000000
34.178190 49.000000
34.197672 44.000000
34.217154 40.000000
34.236637 50.000000
34.256119 45.000000
34.275601 46.000000
34.295084 34.000000
34.314566 43.000000
34.334049 43.000000
34.353531 46.000000
34.373013 46.000000
34.392496 50.000000
34.411978 43.000000
34.431460 35.000000
34.450943 37.000000
34.470425 55.000000
34.489908 51.000000
34.509390 40.000000
34.528872 43.000000
34.548355 47.000000
34.567837 45.000000
34.587319 45.000000
34.606802 45.000000
34.626284 34.000000
34.645766 44.000000
34.665249 47.000000
34.684731 40.000000
34.704214 29.000000
34.723696 39.000000
34.743178 45.000000
34.762661 39.000000
34.782143 37.000000
34.801625 39.000000
34.821108 41.000000
34.840590 38.000000
34.860073 49.000000
34.879555 46.000000
34.899037 39.000000
34.918520 38.000000
34.938002 43.000000
34.957484 41.000000
34.976967 33.000000
34.996449 40.000000
35.015931 45.000000
35.035414 40.000000
35.054896 40.000000
35.074379 38.000000
35.093861 42.000000
35.113343 36.000000
35.132826 53.000000
35.152308 34.000000
35.171790 43.000000
35.191273 43.000000
35.210755 31.000000
35.230238 54.000000
35.249720 45.000000
35.269202 37.000000
35.288685 51.000000
35.308167 44.000000
35.327649 45.000000
35.347132 54.000000
35.366614 71.000000
35.386096 81.000000
35.405579 145.000000
35.425061 152.000000
35.444544 134.000000
35.464026 117.000000
35.483508 87.000000
35.502991 108.000000
35.522473 108.000000
35.541955 88.000000
35.561438 75.000000
35.580920 52.000000
35.600403 40.000000
35.619885 52.000000
35.639367 51.000000
35.658850 55.000000
35.678332 45.000000
35.697814 36.000000
35.717297 49.000000
35.736779 39.000000
35.756261 46.000000
35.775744 37.000000
35.795226 40.000000
35.814709 49.000000
35.834191 44.000000
35.853673 42.000000
35.873156 43.000000
35.892638 40.000000
35.912120 40.000000
35.931603 39.000000
35.951085 54.000000
35.970568 45.000000
35.990050 37.000000
36.009532 40.000000
36.029015 37.000000
36.048497 35.000000
36.067979 47.000000
36.087462 45.000000
36.106944 45.000000
36.126426 54.000000
36.145909 35.000000
36.165391 36.000000
36.184874 45.000000
36.204356 43.000000
36.223838 50.000000
36.243321 31.000000
36.262803 36.000000
36.282285 46.000000
36.301768 53.000000
36.321250 52.000000
36.340733 36.000000
36.360215 39.000000
36.379697 38.000000
36.399180 45.000000
36.418662 58.000000
36.438144 43.000000
36.457627 40.000000
36.477109 50.000000
36.496592 56.000000
36.516074 47.000000
36.535556 42.000000
36.555039 52.000000
36.574521 48.000000
36.594003 47.000000
36.613486 41.000000
36.632968 53.000000
36.652450 44.000000
36.671933 54.000000
36.691415 30.000000
36.710898 47.000000
36.730380 35.000000
36.749862 41.000000
36.769345 34.000000
36.788827 37.000000
36.808309 36.000000
36.827792 53.000000
36.847274 37.000000
36.866757 38.000000
36.886239 54.000000
36.905721 52.000000
36.925204 34.000000
36.944686 55.000000
36.964168 41.000000
36.983651 49.000000
37.003133 38.000000
37.022615 46.000000
37.042098 60.000000
37.061580 47.000000
37.081063 59.000000
37.100545 54.000000
37.120027 42.000000
37.139510 45.000000
37.158992 46.000000
37.178474 42.000000
37.197957 40.000000
37.217439 45.000000
37.236922 46.000000
37.256404 41.000000
37.275886 49.000000
37.295369 35.000000
37.314851 52.000000
37.334333 42.000000
37.353816 48.000000
37.373298 51.000000
37.392780 36.000000
37.412263 55.000000
37.431745 50.000000
37.451228 37.000000
37.470710 38.000000
37.490192 40.000000
37.509675 52.000000
37.529157 32.000000
37.548639 41.000000
37.568122 34.000000
37.587604 44.000000
37.607087 37.000000
37.626569 34.000000
37.646051 38.000000
37.665534 31.000000
37.685016 47.000000
37.704498 37.000000
37.723981 43.000000
37.743463 42.000000
37.762945 42.000000
37.782428 37.000000
37.801910 51.000000
37.821393 45.000000
37.840875 46.000000
37.860357 52.000000
37.879840 52.000000
37.899322 41.000000
37.918804 42.000000
37.938287 50.000000
37.957769 37.000000
37.977252 45.000000
37.996734 39.000000
38.016216 34.000000
38.035699 44.000000
38.055181 42.000000
38.074663 29.000000
38.094146 46.000000
38.113628 46.000000
38.133111 44.000000
38.152593 35.000000
38.172075 49.000000
38.191558 51.000000
38.211040 44.000000
38.230522 55.000000
38.250005 52.000000
38.269487 47.000000
38.288969 41.000000
38.308452 40.000000
38.327934 43.000000
38.347417 39.000000
38.366899 51.000000
38.386381 54.000000
38.405864 47.000000
38.425346 38.000000
38.444828 37.000000
38.464311 44.000000
38.483793 32.000000
38.503276 41.000000
38.522758 42.000000
38.542240 35.000000
38.561723 28.000000
38.581205 34.000000
38.600687 42.000000
38.620170 44.000000
38.639652 28.000000
38.659134 37.000000
38.678617 44.000000
38.698099 50.000000
38.717582 43.000000
38.737064 41.000000
38.756546 42.000000
38.776029 37.000000
38.795511 43.000000
38.814993 36.000000
38.834476 46.000000
38.853958 44.000000
38.873441 40.000000
38.892923 38.000000
38.912405 56.000000
38.931888 44.000000
38.951370 42.000000
38.970852 41.000000
38.990335 41.000000
39.009817 54.000000
39.029299 33.000000
39.048782 43.000000
39.068264 38.000000
39.087747 51.000000
39.107229 37.000000
39.126711 37.000000
39.146194 48.000000
39.165676 43.000000
39.185158 30.000000
39.204641 47.000000
39.224123 39.000000
39.243606 44.000000
39.263088 55.000000
39.282570 26.000000
39.302053 42.000000
39.321535 52.000000
39.341017 43.000000
39.360500 44.000000
39.379982 48.000000
39.399464 47.000000
39.418947 49.000000
39.438429 40.000000
39.457912 46.000000
39.477394 41.000000
39.496876 36.000000
39.516359 58.000000
39.535841 48.000000
39.555323 50.000000
39.574806 51.000000
39.594288 45.000000
39.613771 37.000000
39.633253 44.000000
39.652735 41.000000
39.672218 51.000000
39.691700 49.000000
39.711182 44.000000
39.730665 48.000000
39.750147 44.000000
39.769630 46.000000
39.789112 36.000000
39.808594 52.000000
39.828077 43.000000
39.847559 32.000000
39.867041 49.000000
39.886524 46.000000
39.906006 57.000000
39.925488 39.000000
39.944971 38.000000
39.964453 45.000000
39.983936 35.000000
40.003418 40.000000
40.022900 54.000000
40.042383 35.000000
40.061865 49.000000
40.081347 45.000000
40.100830 39.000000
40.120312 40.000000
40.139795 39.000000
40.159277 39.000000
40.178759 37.000000
40.198242 35.000000
40.217724 41.000000
40.237206 53.000000
40.256689 47.000000
40.276171 44.000000
40.295653 56.000000
40.315136 35.000000
40.334618 40.000000
40.354101 37.000000
40.373583 41.000000
40.393065 30.000000
40.412548 42.000000
40.432030 47.000000
40.451512 44.000000
40.470995 52.000000
40.490477 49.000000
40.509960 53.000000
40.529442 36.000000
40.548924 43.000000
40.568407 40.000000
40.587889 53.000000
40.607371 41.000000
40.626854 42.000000
40.646336 33.000000
40.665818 36.000000
40.685301 42.000000
40.704783 47.000000
40.724266 44.000000
40.743748 49.000000
40.763230 46.000000
40.782713 39.000000
40.802195 34.000000
40.821677 52.000000
40.841160 38.000000
40.860642 37.000000
40.880125 46.000000
40.899607 47.000000
40.919089 43.000000
40.938572 40.000000
40.958054 34.000000
40.977536 42.000000
40.997019 49.000000
41.016501 37.000000
41.035983 48.000000
41.055466 45.000000
41.074948 49.000000
41.094431 48.000000
41.113913 51.000000
41.133395 36.000000
41.152878 48.000000
41.172360 43.000000
41.191842 44.000000
41.211325 54.000000
41.230807 43.000000
41.250290 39.000000
41.269772 36.000000
41.289254 40.000000
41.308737 50.000000
41.328219 35.000000
41.347701 41.000000
41.367184 49.000000
41.386666 48.000000
41.406149 54.000000
41.425631 52.000000
41.445113 60.000000
41.464596 43.000000
41.484078 40.000000
41.503560 49.000000
41.523043 44.000000
41.542525 46.000000
41.562007 54.000000
41.581490 41.000000
41.600972 42.000000
41.620455 43.000000
41.639937 46.000000
41.659419 42.000000
41.678902 43.000000
41.698384 34.000000
41.717866 55.000000
41.737349 51.000000
41.756831 41.000000
41.776314 40.000000
41.795796 47.000000
41.815278 29.000000
41.834761 47.000000
41.854243 43.000000
41.873725 33.000000
41.893208 41.000000
41.912690 43.000000
41.932172 35.000000
41.951655 44.000000
41.971137 51.000000
41.990620 53.000000
42.010102 50.000000
42.029584 38.000000
42.049067 37.000000
42.068549 36.000000
42.088031 36.000000
42.107514 47.000000
42.126996 43.000000
42.146479 41.000000
42.165961 45.000000
42.185443 39.000000
42.204926 42.000000
42.224408 64.000000
42.243890 53.000000
42.263373 48.000000
42.282855 46.000000
42.302337 44.000000
42.321820 48.000000
42.341302 36.000000
42.360785 38.000000
42.380267 48.000000
42.399749 33.000000
42.419232 50.000000
42.438714 34.000000
42.458196 36.000000
42.477679 53.000000
42.497161 35.000000
42.516644 39.000000
42.536126 41.000000
42.555608 34.000000
42.575091 45.000000
42.594573 30.000000
42.614055 44.000000
42.633538 39.000000
42.653020 39.000000
42.672502 50.000000
42.691985 45.000000
42.711467 47.000000
42.730950 38.000000
42.750432 42.000000
42.769914 39.000000
42.789397 44.000000
42.808879 48.000000
42.828361 34.000000
42.847844 43.000000
42.867326 39.000000
42.886809 40.000000
42.906291 35.000000
42.925773 44.000000
42.945256 44.000000
42.964738 31.000000
42.984220 56.000000
43.003703 50.000000
43.023185 57.000000
43.042667 48.000000
43.062150 62.000000
43.081632 54.000000
43.101115 58.000000
43.120597 50.000000
43.140079 53.000000
43.159562 55.000000
43.179044 53.000000
43.198526 53.000000
43.218009 47.000000
43.237491 53.000000
43.256974 50.000000
43.276456 47.000000
43.295938 44.000000
43.315421 47.000000
43.334903 45.000000
43.354385 47.000000
43.373868 47.000000
43.393350 49.000000
43.412833 42.000000
43.432315 33.000000
43.451797 53.000000
43.471280 41.000000
43.490762 47.000000
43.510244 45.000000
43.529727 45.000000
43.549209 34.000000
43.568691 39.000000
43.588174 50.000000
43.607656 36.000000
43.627139 49.000000
43.646621 46.000000
43.666103 33.000000
43.685586 49.000000
43.705068 39.000000
43.724550 47.000000
43.744033 46.000000
43.763515 40.000000
43.782998 44.000000
43.802480 30.000000
43.821962 45.000000
43.841445 49.000000
43.860927 34.000000
43.880409 35.000000
43.899892 42.000000
43.919374 42.000000
43.938856 42.000000
43.958339 43.000000
43.977821 42.000000
43.997304 43.000000
44.016786 40.000000
44.036268 46.000000
44.055751 37.000000
44.075233 46.000000
44.094715 36.000000
44.114198 47.000000
44.133680 38.000000
44.153163 37.000000
44.172645 53.000000
44.192127 52.000000
44.211610 45.000000
44.231092 32.000000
44.250574 45.000000
44.270057 50.000000
44.289539 38.000000
44.309021 52.000000
44.328504 48.000000
44.347986 49.000000
44.367469 46.000000
44.386951 41.000000
44.406433 52.000000
44.425916 37.000000
44.445398 41.000000
44.464880 60.000000
44.484363 52.000000
44.503845 38.000000
44.523328 33.000000
44.542810 44.000000
44.562292 44.000000
44.581775 52.000000
44.601257 50.000000
44.620739 50.000000
44.640222 49.000000
44.659704 36.000000
44.679186 44.000000
44.698669 39.000000
44.718151 48.000000
44.737634 41.000000
44.757116 30.000000
44.776598 39.000000
44.796081 43.000000
44.815563 45.000000
44.835045 45.000000
44.854528 42.000000
44.874010 42.000000
44.893493 38.000000
44.912975 47.000000
44.932457 46.000000
44.951940 44.000000
44.971422 34.000000
44.990904 38.000000
45.010387 44.000000
45.029869 40.000000
45.049352 35.000000
45.068834 37.000000
45.088316 46.000000
45.107799 42.000000
45.127281 50.000000
45.146763 47.000000
45.166246 50.000000
45.185728 50.000000
45.205210 46.000000
45.224693 37.000000
45.244175 40.000000
45.263658 39.000000
45.283140 35.000000
45.302622 41.000000
45.322105 39.000000
45.341587 41.000000
45.361069 37.000000
45.380552 51.000000
45.400034 50.000000
45.419517 32.000000
45.438999 41.000000
45.458481 58.000000
45.477964 48.000000
45.497446 43.000000
45.516928 48.000000
45.536411 42.000000
45.555893 37.000000
45.575375 37.000000
45.594858 37.000000
45.614340 47.000000
45.633823 49.000000
45.653305 44.000000
45.672787 56.000000
45.692270 42.000000
45.711752 33.000000
45.731234 41.000000
45.750717 37.000000
45.770199 42.000000
45.789682 60.000000
45.809164 42.000000
45.828646 43.000000
45.848129 40.000000
45.867611 38.000000
45.887093 48.000000
45.906576 44.000000
45.926058 55.000000
45.945540 44.000000
45.965023 35.000000
45.984505 39.000000
46.003988 57.000000
46.023470 44.000000
46.042952 62.000000
46.062435 37.000000
46.081917 56.000000
46.101399 28.000000
46.120882 45.000000
46.140364 38.000000
46.159847 39.000000
46.179329 46.000000
46.198811 47.000000
46.218294 43.000000
46.237776 40.000000
46.257258 49.000000
46.276741 44.000000
46.296223 44.000000
46.315705 40.000000
46.335188 57.000000
46.354670 41.000000
46.374153 51.000000
46.393635 37.000000
46.413117 41.000000
46.432600 46.000000
46.452082 46.000000
46.471564 58.000000
46.491047 42.000000
46.510529 53.000000
46.530012 45.000000
46.549494 30.000000
46.568976 50.000000
46.588459 51.000000
46.607941 56.000000
46.627423 47.000000
46.646906 38.000000
46.666388 41.000000
46.685871 42.000000
46.705353 34.000000
46.724835 46.000000
46.744318 45.000000
46.763800 46.000000
46.783282 38.000000
46.802765 43.000000
46.822247 48.000000
46.841729 39.000000
46.861212 47.000000
46.880694 50.000000
46.900177 41.000000
46.919659 43.000000
46.939141 51.000000
46.958624 43.000000
46.978106 36.000000
46.997588 46.000000
47.017071 40.000000
47.036553 30.000000
47.056036 48.000000
47.075518 37.000000
47.095000 45.000000
47.114483 43.000000
47.133965 44.000000
47.153447 55.000000
47.172930 37.000000
47.192412 46.000000
47.211894 53.000000
47.231377 36.000000
47.250859 40.000000
47.270342 46.000000
47.289824 43.000000
47.309306 31.000000
47.328789 35.000000
47.348271 50.000000
47.367753 41.000000
47.387236 36.000000
47.406718 41.000000
47.426201 34.000000
47.445683 55.000000
47.465165 34.000000
47.484648 34.000000
47.504130 43.000000
47.523612 52.000000
47.543095 44.000000
47.562577 60.000000
47.582059 58.000000
47.601542 50.000000
47.621024 40.000000
47.640507 51.000000
47.659989 49.000000
47.679471 38.000000
47.698954 51.000000
47.718436 51.000000
47.737918 39.000000
47.757401 46.000000
47.776883 51.000000
47.796366 41.000000
47.815848 43.000000
47.835330 46.000000
47.854813 46.000000
47.874295 41.000000
47.893777 57.000000
47.913260 46.000000
47.932742 53.000000
47.952224 42.000000
47.971707 53.000000
47.991189 47.000000
48.010672 38.000000
48.030154 45.000000
48.049636 45.000000
48.069119 42.000000
48.088601 48.000000
48.108083 36.000000
48.127566 43.000000
48.147048 48.000000
48.166531 42.000000
48.186013 44.000000
48.205495 41.000000
48.224978 30.000000
48.244460 44.000000
48.263942 48.000000
48.283425 41.000000
48.302907 42.000000
48.322389 47.000000
48.341872 48.000000
48.361354 43.000000
48.380837 37.000000
48.400319 42.000000
48.419801 44.000000
48.439284 50.000000
48.458766 45.000000
48.478248 51.000000
48.497731 41.000000
48.517213 46.000000
48.536696 46.000000
48.556178 41.000000
48.575660 57.000000
48.595143 53.000000
48.614625 43.000000
48.634107 43.000000
48.653590 55.000000
48.673072 43.000000
48.692555 54.000000
48.712037 43.000000
48.731519 58.000000
48.751002 40.000000
48.770484 51.000000
48.789966 50.000000
48.809449 39.000000
48.828931 48.000000
48.848413 40.000000
48.867896 33.000000
48.887378 48.000000
48.906861 44.000000
48.926343 43.000000
48.945825 36.000000
48.965308 46.000000
48.984790 36.000000
49.004272 42.000000
49.023755 44.000000
49.043237 45.000000
49.062720 51.000000
49.082202 42.000000
49.101684 36.000000
49.121167 52.000000
49.140649 49.000000
49.160131 40.000000
49.179614 34.000000
49.199096 31.000000
49.218578 40.000000
49.238061 37.000000
49.257543 46.000000
49.277026 35.000000
49.296508 51.000000
49.315990 42.000000
49.335473 40.000000
49.354955 34.000000
49.374437 57.000000
49.393920 44.000000
49.413402 38.000000
49.432885 43.000000
49.452367 39.000000
49.471849 51.000000
49.491332 36.000000
49.510814 39.000000
49.530296 43.000000
49.549779 47.000000
49.569261 42.000000
49.588743 40.000000
49.608226 40.000000
49.627708 51.000000
49.647191 37.000000
49.666673 30.000000
49.686155 42.000000
49.705638 34.000000
49.725120 51.000000
49.744602 38.000000
49.764085 37.000000
49.783567 45.000000
49.803050 41.000000
49.822532 36.000000
49.842014 49.000000
49.861497 40.000000
49.880979 42.000000
49.900461 39.000000
49.919944 48.000000
49.939426 34.000000
49.958908 44.000000
49.978391 53.000000
49.997873 41.000000
50.017356 42.000000
50.036838 34.000000
50.056320 50.000000
50.075803 39.000000
50.095285 39.000000
50.114767 34.000000
50.134250 48.000000
50.153732 51.000000
50.173215 50.000000
50.192697 37.000000
50.212179 50.000000
50.231662 41.000000
50.251144 52.000000
50.270626 37.000000
50.290109 41.000000
50.309591 33.000000
50.329074 45.000000
50.348556 47.000000
50.368038 52.000000
50.387521 38.000000
50.407003 41.000000
50.426485 44.000000
50.445968 54.000000
50.465450 44.000000
50.484932 41.000000
50.504415 44.000000
50.523897 31.000000
50.543380 47.000000
50.562862 47.000000
50.582344 33.000000
50.601827 47.000000
50.621309 41.000000
50.640791 48.000000
50.660274 45.000000
50.679756 42.000000
50.699239 41.000000
50.718721 47.000000
50.738203 47.000000
50.757686 43.000000
50.777168 43.000000
50.796650 36.000000
50.816133 41.000000
50.835615 44.000000
50.855097 38.000000
50.874580 51.000000
50.894062 46.000000
50.913545 48.000000
50.933027 45.000000
50.952509 45.000000
50.971992 49.000000
50.991474 33.000000
51.010956 48.000000
51.030439 47.000000
51.049921 40.000000
51.069404 47.000000
51.088886 48.000000
51.108368 30.000000
51.127851 47.000000
51.147333 50.000000
51.166815 52.000000
51.186298 32.000000
51.205780 44.000000
51.225262 40.000000
51.244745 62.000000
51.264227 43.000000
51.283710 46.000000
51.303192 42.000000
51.322674 46.000000
51.342157 25.000000
51.361639 46.000000
51.381121 48.000000
51.400604 41.000000
51.420086 47.000000
51.439569 43.000000
51.459051 52.000000
51.478533 56.000000
51.498016 43.000000
51.517498 41.000000
51.536980 53.000000
51.556463 48.000000
51.575945 50.000000
51.595427 55.000000
51.614910 46.000000
51.634392 43.000000
51.653875 36.000000
51.673357 42.000000
51.692839 50.000000
51.712322 46.000000
51.731804 35.000000
51.751286 37.000000
51.770769 44.000000
51.790251 57.000000
51.809734 35.000000
51.829216 43.000000
51.848698 42.000000
51.868181 35.000000
51.887663 48.000000
51.907145 39.000000
51.926628 42.000000
51.946110 43.000000
51.965593 39.000000
51.985075 48.000000
52.004557 44.000000
52.024040 45.000000
52.043522 55.000000
52.063004 64.000000
52.082487 39.000000
52.101969 42.000000
52.121451 46.000000
52.140934 36.000000
52.160416 45.000000
52.179899 42.000000
52.199381 51.000000
52.218863 37.000000
52.238346 43.000000
52.257828 45.000000
52.277310 52.000000
52.296793 41.000000
52.316275 46.000000
52.335758 39.000000
52.355240 49.000000
52.374722 51.000000
52.394205 35.000000
52.413687 53.000000
52.433169 50.000000
52.452652 43.000000
52.472134 46.000000
52.491616 51.000000
52.511099 38.000000
52.530581 43.000000
52.550064 47.000000
52.569546 47.000000
52.589028 51.000000
52.608511 43.000000
52.627993 41.000000
52.647475 40.000000
52.666958 32.000000
52.686440 38.000000
52.705923 44.000000
52.725405 47.000000
52.744887 34.000000
52.764370 37.000000
52.783852 52.000000
52.803334 54.000000
52.822817 55.000000
52.842299 48.000000
52.861781 43.000000
52.881264 36.000000
52.900746 45.000000
52.920229 39.000000
52.939711 41.000000
52.959193 35.000000
52.978676 50.000000
52.998158 34.000000
53.017640 45.000000
53.037123 40.000000
53.056605 47.000000
53.076088 48.000000
53.095570 37.000000
53.115052 56.000000
53.134535 53.000000
53.154017 41.000000
53.173499 44.000000
53.192982 43.000000
53.212464 53.000000
53.231946 40.000000
53.251429 42.000000
53.270911 39.000000
53.290394 39.000000
53.309876 41.000000
53.329358 57.000000
53.348841 58.000000
53.368323 36.000000
53.387805 49.000000
53.407288 70.000000
53.426770 53.000000
53.446253 55.000000
53.465735 48.000000
53.485217 65.000000
53.504700 48.000000
53.524182 61.000000
53.543664 57.000000
53.563147 38.000000
53.582629 40.000000
53.602112 64.000000
53.621594 43.000000
53.641076 44.000000
53.660559 41.000000
53.680041 49.000000
53.699523 50.000000
53.719006 45.000000
53.738488 40.000000
53.757970 51.000000
53.777453 36.000000
53.796935 51.000000
53.816418 45.000000
53.835900 50.000000
53.855382 39.000000
53.874865 36.000000
53.894347 31.000000
53.913829 43.000000
53.933312 49.000000
53.952794 51.000000
53.972277 42.000000
53.991759 56.000000
54.011241 37.000000
54.030724 56.000000
54.050206 54.000000
54.069688 48.000000
54.089171 37.000000
54.108653 40.000000
54.128135 40.000000
54.147618 49.000000
54.167100 42.000000
54.186583 43.000000
54.206065 58.000000
54.225547 33.000000
54.245030 45.000000
54.264512 56.000000
54.283994 46.000000
54.303477 29.000000
54.322959 35.000000
54.342442 44.000000
54.361924 43.000000
54.381406 42.000000
54.400889 40.000000
54.420371 39.000000
54.439853 49.000000
54.459336 38.000000
54.478818 37.000000
54.498300 35.000000
54.517783 48.000000
54.537265 46.000000
54.556748 44.000000
54.576230 46.000000
54.595712 54.000000
54.615195 50.000000
54.634677 49.000000
54.654159 39.000000
54.673642 51.000000
54.693124 38.000000
54.712607 43.000000
54.732089 46.000000
54.751571 46.000000
54.771054 31.000000
54.790536 45.000000
54.810018 50.000000
54.829501 42.000000
54.848983 48.000000
54.868465 46.000000
54.887948 39.000000
54.907430 41.000000
54.926913 42.000000
54.946395 56.000000
54.965877 37.000000
54.985360 39.000000
55.004842 51.000000
55.024324 50.000000
55.043807 48.000000
55.063289 37.000000
55.082772 34.000000
55.102254 37.000000
55.121736 42.000000
55.141219 50.000000
55.160701 50.000000
55.180183 38.000000
55.199666 51.000000
55.219148 33.000000
55.238630 50.000000
55.258113 39.000000
55.277595 48.000000
55.297078 42.000000
55.316560 53.000000
55.336042 52.000000
55.355525 45.000000
55.375007 48.000000
55.394489 40.000000
55.413972 45.000000
55.433454 45.000000
55.452937 35.000000
55.472419 49.000000
55.491901 36.000000
55.511384 35.000000
55.530866 49.000000
55.550348 51.000000
55.569831 40.000000
55.589313 42.000000
55.608796 46.000000
55.628278 49.000000
55.647760 54.000000
55.667243 52.000000
55.686725 48.000000
55.706207 42.000000
55.725690 52.000000
55.745172 53.000000
55.764654 33.000000
55.784137 43.000000
55.803619 54.000000
55.823102 54.000000
55.842584 41.000000
55.862066 54.000000
55.881549 43.000000
55.901031 41.000000
55.920513 42.000000
55.939996 48.000000
55.959478 41.000000
55.978961 48.000000
55.998443 66.000000
56.017925 33.000000
56.037408 51.000000
56.056890 40.000000
56.076372 36.000000
56.095855 42.000000
56.115337 40.000000
56.134819 60.000000
56.154302 47.000000
56.173784 44.000000
56.193267 51.000000
56.212749 37.000000
56.232231 41.000000
56.251714 43.000000
56.271196 46.000000
56.290678 44.000000
56.310161 49.000000
56.329643 37.000000
56.349126 42.000000
56.368608 49.000000
56.388090 55.000000
56.407573 43.000000
56.427055 42.000000
56.446537 44.000000
56.466020 34.000000
56.485502 32.000000
56.504984 42.000000
56.524467 43.000000
56.543949 49.000000
56.563432 46.000000
56.582914 38.000000
56.602396 48.000000
56.621879 36.000000
56.641361 44.000000
56.660843 42.000000
56.680326 51.000000
56.699808 51.000000
56.719291 58.000000
56.738773 50.000000
56.758255 44.000000
56.777738 43.000000
56.797220 43.000000
56.816702 44.000000
56.836185 49.000000
56.855667 40.000000
56.875149 53.000000
56.894632 60.000000
56.914114 59.000000
56.933597 71.000000
56.953079 75.000000
56.972561 69.000000
56.992044 43.000000
57.011526 55.000000
57.031008 53.000000
57.050491 59.000000
57.069973 53.000000
57.089456 56.000000
57.108938 65.000000
57.128420 62.000000
57.147903 43.000000
57.167385 59.000000
57.186867 65.000000
57.206350 46.000000
57.225832 48.000000
57.245315 44.000000
57.264797 53.000000
57.284279 52.000000
57.303762 44.000000
57.323244 57.000000
57.342726 43.000000
57.362209 55.000000
57.381691 45.000000
57.401173 50.000000
57.420656 42.000000
57.440138 45.000000
57.459621 58.000000
57.479103 41.000000
57.498585 47.000000
57.518068 46.000000
57.537550 39.000000
57.557032 36.000000
57.576515 38.000000
57.595997 46.000000
57.615480 52.000000
57.634962 46.000000
57.654444 45.000000
57.673927 44.000000
57.693409 44.000000
57.712891 51.000000
57.732374 44.000000
57.751856 44.000000
57.771338 56.000000
57.790821 43.000000
57.810303 33.000000
57.829786 40.000000
57.849268 46.000000
57.868750 59.000000
57.888233 42.000000
57.907715 57.000000
57.927197 34.000000
57.946680 39.000000
57.966162 43.000000
57.985645 36.000000
58.005127 33.000000
58.024609 40.000000
58.044092 42.000000
58.063574 44.000000
58.083056 53.000000
58.102539 51.000000
58.122021 44.000000
58.141503 44.000000
58.160986 54.000000
58.180468 47.000000
58.199951 44.000000
58.219433 45.000000
58.238915 54.000000
58.258398 45.000000
58.277880 35.000000
58.297362 52.000000
58.316845 32.000000
58.336327 36.000000
58.355810 44.000000
58.375292 38.000000
58.394774 45.000000
58.414257 44.000000
58.433739 43.000000
58.453221 49.000000
58.472704 43.000000
58.492186 52.000000
58.511668 41.000000
58.531151 54.000000
58.550633 47.000000
58.570116 48.000000
58.589598 45.000000
58.609080 45.000000
58.628563 35.000000
58.648045 52.000000
58.667527 48.000000
58.687010 48.000000
58.706492 41.000000
58.725975 40.000000
58.745457 51.000000
58.764939 57.000000
58.784422 44.000000
58.803904 53.000000
58.823386 46.000000
58.842869 27.000000
58.862351 41.000000
58.881834 49.000000
58.901316 46.000000
58.920798 51.000000
58.940281 46.000000
58.959763 41.000000
58.979245 65.000000
58.998728 58.000000
59.018210 38.000000
59.037692 40.000000
59.057175 50.000000
59.076657 39.000000
59.096140 53.000000
59.115622 34.000000
59.135104 45.000000
59.154587 19.000000
59.174069 44.000000
59.193551 66.000000
59.213034 49.000000
59.232516 50.000000
59.251999 53.000000
59.271481 43.000000
59.290963 42.000000
59.310446 52.000000
59.329928 54.000000
59.349410 40.000000
59.368893 45.000000
59.388375 45.000000
59.407857 44.000000
59.427340 42.000000
59.446822 37.000000
59.466305 50.000000
59.485787 45.000000
59.505269 50.000000
59.524752 47.000000
59.544234 38.000000
59.563716 49.000000
59.583199 34.000000
59.602681 42.000000
59.622164 56.000000
59.641646 49.000000
59.661128 44.000000
59.680611 46.000000
59.700093 47.000000
59.719575 45.000000
59.739058 43.000000
59.758540 42.000000
59.778022 55.000000
59.797505 40.000000
59.816987 40.000000
59.836470 49.000000
59.855952 43.000000
59.875434 41.000000
59.894917 47.000000
59.914399 46.000000
59.933881 53.000000
59.953364 52.000000
59.972846 39.000000
59.992329 45.000000
60.011811 54.000000
60.031293 51.000000
60.050776 45.000000
60.070258 47.000000
60.089740 41.000000
60.109223 46.000000
60.128705 47.000000
60.148187 43.000000
60.167670 47.000000
60.187152 55.000000
60.206635 35.000000
60.226117 42.000000
60.245599 48.000000
60.265082 31.000000
60.284564 41.000000
60.304046 46.000000
60.323529 56.000000
60.343011 43.000000
60.362494 45.000000
60.381976 49.000000
60.401458 42.000000
60.420941 41.000000
60.440423 60.000000
60.459905 51.000000
60.479388 50.000000
60.498870 53.000000
60.518352 35.000000
60.537835 40.000000
60.557317 43.000000
60.576800 51.000000
60.596282 58.000000
60.615764 45.000000
60.635247 47.000000
60.654729 31.000000
60.674211 45.000000
60.693694 51.000000
60.713176 41.000000
60.732659 52.000000
60.752141 40.000000
60.771623 44.000000
60.791106 51.000000
60.810588 44.000000
60.830070 49.000000
60.849553 38.000000
60.869035 53.000000
60.888518 41.000000
60.908000 37.000000
60.927482 52.000000
60.946965 52.000000
60.966447 48.000000
60.985929 45.000000
61.005412 49.000000
61.024894 44.000000
61.044376 43.000000
61.063859 35.000000
61.083341 52.000000
61.102824 49.000000
61.122306 43.000000
61.141788 45.000000
61.161271 37.000000
61.180753 53.000000
61.200235 52.000000
61.219718 48.000000
61.239200 46.000000
61.258683 48.000000
61.278165 51.000000
61.297647 47.000000
61.317130 52.000000
61.336612 37.000000
61.356094 42.000000
61.375577 42.000000
61.395059 43.000000
61.414541 50.000000
61.434024 43.000000
61.453506 58.000000
61.472989 35.000000
61.492471 49.000000
61.511953 41.000000
61.531436 38.000000
61.550918 38.000000
61.570400 48.000000
61.589883 39.000000
61.609365 44.000000
61.628848 44.000000
61.648330 43.000000
61.667812 36.000000
61.687295 40.000000
61.706777 50.000000
61.726259 42.000000
61.745742 39.000000
61.765224 32.000000
61.784706 50.000000
61.804189 40.000000
61.823671 36.000000
61.843154 50.000000
61.862636 36.000000
61.882118 50.000000
61.901601 51.000000
61.921083 47.000000
61.940565 47.000000
61.960048 51.000000
61.979530 63.000000
61.999013 47.000000
62.018495 47.000000
62.037977 59.000000
62.057460 59.000000
62.076942 31.000000
62.096424 36.000000
62.115907 44.000000
62.135389 38.000000
62.154871 43.000000
62.174354 44.000000
62.193836 41.000000
62.213319 46.000000
62.232801 50.000000
62.252283 41.000000
62.271766 41.000000
62.291248 42.000000
62.310730 45.000000
62.330213 53.000000
62.349695 43.000000
62.369178 46.000000
62.388660 45.000000
62.408142 50.000000
62.427625 47.000000
62.447107 56.000000
62.466589 57.000000
62.486072 68.000000
62.505554 55.000000
62.525037 68.000000
62.544519 64.000000
62.564001 59.000000
62.583484 47.000000
62.602966 62.000000
62.622448 47.000000
62.641931 55.000000
62.661413 58.000000
62.680895 36.000000
62.700378 59.000000
62.719860 58.000000
62.739343 44.000000
62.758825 65.000000
62.778307 56.000000
62.797790 53.000000
62.817272 57.000000
62.836754 41.000000
62.856237 47.000000
62.875719 52.000000
62.895202 41.000000
62.914684 38.000000
62.934166 42.000000
62.953649 56.000000
62.973131 61.000000
62.992613 57.000000
63.012096 52.000000
63.031578 58.000000
63.051060 61.000000
63.070543 54.000000
63.090025 56.000000
63.109508 53.000000
63.128990 43.000000
63.148472 51.000000
63.167955 40.000000
63.187437 47.000000
63.206919 56.000000
63.226402 43.000000
63.245884 52.000000
63.265367 54.000000
63.284849 38.000000
63.304331 40.000000
63.323814 39.000000
63.343296 41.000000
63.362778 47.000000
63.382261 59.000000
63.401743 48.000000
63.421225 42.000000
63.440708 40.000000
63.460190 42.000000
63.479673 53.000000
63.499155 53.000000
63.518637 46.000000
63.538120 44.000000
63.557602 46.000000
63.577084 44.000000
63.596567 44.000000
63.616049 40.000000
63.635532 54.000000
63.655014 46.000000
63.674496 53.000000
63.693979 40.000000
63.713461 35.000000
63.732943 56.000000
63.752426 43.000000
63.771908 46.000000
63.791390 44.000000
63.810873 50.000000
63.830355 39.000000
63.849838 52.000000
63.869320 49.000000
63.888802 41.000000
63.908285 42.000000
63.927767 53.000000
63.947249 42.000000
63.966732 41.000000
63.986214 50.000000
64.005697 45.000000
64.025179 46.000000
64.044661 38.000000
64.064144 49.000000
64.083626 43.000000
64.103108 35.000000
64.122591 32.000000
64.142073 49.000000
64.161556 46.000000
64.181038 31.000000
64.200520 38.000000
64.220003 47.000000
64.239485 45.000000
64.258967 51.000000
64.278450 41.000000
64.297932 37.000000
64.317414 41.000000
64.336897 41.000000
64.356379 50.000000
64.375862 56.000000
64.395344 44.000000
64.414826 38.000000
64.434309 47.000000
64.453791 50.000000
64.473273 51.000000
64.492756 43.000000
64.512238 51.000000
64.531721 53.000000
64.551203 54.000000
64.570685 32.000000
64.590168 48.000000
64.609650 43.000000
64.629132 54.000000
64.648615 46.000000
64.668097 40.000000
64.687579 51.000000
64.707062 49.000000
64.726544 57.000000
64.746027 50.000000
64.765509 60.000000
64.784991 41.000000
64.804474 48.000000
64.823956 50.000000
64.843438 48.000000
64.862921 48.000000
64.882403 44.000000
64.901886 60.000000
64.921368 42.000000
64.940850 44.000000
64.960333 36.000000
64.979815 48.000000
64.999297 49.000000
65.018780 46.000000
65.038262 52.000000
65.057744 49.000000
65.077227 41.000000
65.096709 36.000000
65.116192 51.000000
65.135674 47.000000
65.155156 50.000000
65.174639 46.000000
65.194121 52.000000
65.213603 41.000000
65.233086 39.000000
65.252568 46.000000
65.272051 49.000000
65.291533 55.000000
65.311015 46.000000
65.330498 35.000000
65.349980 42.000000
65.369462 53.000000
65.388945 50.000000
65.408427 59.000000
65.427909 48.000000
65.447392 45.000000
65.466874 34.000000
65.486357 39.000000
65.505839 38.000000
65.525321 55.000000
65.544804 53.000000
65.564286 52.000000
65.583768 49.000000
65.603251 52.000000
65.622733 39.000000
65.642216 50.000000
65.661698 47.000000
65.681180 60.000000
65.700663 44.000000
65.720145 43.000000
65.739627 51.000000
65.759110 46.000000
65.778592 55.000000
65.798075 49.000000
65.817557 61.000000
65.837039 62.000000
65.856522 51.000000
65.876004 51.000000
65.895486 42.000000
65.914969 63.000000
65.934451 31.000000
65.953933 51.000000
65.973416 47.000000
65.992898 51.000000
66.012381 47.000000
66.031863 41.000000
66.051345 54.000000
66.070828 55.000000
66.090310 31.000000
66.109792 42.000000
66.129275 40.000000
66.148757 43.000000
66.168240 43.000000
66.187722 49.000000
66.207204 45.000000
66.226687 47.000000
66.246169 45.000000
66.265651 47.000000
66.285134 55.000000
66.304616 47.000000
66.324098 40.000000
66.343581 55.000000
66.363063 44.000000
66.382546 34.000000
66.402028 45.000000
66.421510 51.000000
66.440993 46.000000
66.460475 51.000000
66.479957 43.000000
66.499440 32.000000
66.518922 49.000000
66.538405 34.000000
66.557887 39.000000
66.577369 54.000000
66.596852 30.000000
66.616334 40.000000
66.635816 42.000000
66.655299 46.000000
66.674781 50.000000
66.694263 50.000000
66.713746 48.000000
66.733228 51.000000
66.752711 54.000000
66.772193 53.000000
66.791675 53.000000
66.811158 49.000000
66.830640 42.000000
66.850122 38.000000
66.869605 53.000000
66.889087 48.000000
66.908570 50.000000
66.928052 52.000000
66.947534 41.000000
66.967017 34.000000
66.986499 36.000000
67.005981 46.000000
67.025464 55.000000
67.044946 43.000000
67.064428 45.000000
67.083911 40.000000
67.103393 40.000000
67.122876 50.000000
67.142358 42.000000
67.161840 49.000000
67.181323 43.000000
67.200805 58.000000
67.220287 50.000000
67.239770 44.000000
67.259252 49.000000
67.278735 59.000000
67.298217 47.000000
67.317699 53.000000
67.337182 58.000000
67.356664 54.000000
67.376146 47.000000
67.395629 51.000000
67.415111 53.000000
67.434593 61.000000
67.454076 39.000000
67.473558 43.000000
67.493041 52.000000
67.512523 43.000000
67.532005 65.000000
67.551488 44.000000
67.570970 48.000000
67.590452 45.000000
67.609935 48.000000
67.629417 40.000000
67.648900 51.000000
67.668382 42.000000
67.687864 46.000000
67.707347 46.000000
67.726829 36.000000
67.746311 48.000000
67.765794 42.000000
67.785276 50.000000
67.804759 49.000000
67.824241 49.000000
67.843723 36.000000
67.863206 37.000000
67.882688 56.000000
67.902170 51.000000
67.921653 45.000000
67.941135 38.000000
67.960617 51.000000
67.980100 34.000000
67.999582 39.000000
68.019065 30.000000
68.038547 33.000000
68.058029 53.000000
68.077512 34.000000
68.096994 45.000000
68.116476 53.000000
68.135959 38.000000
68.155441 37.000000
68.174924 41.000000
68.194406 58.000000
68.213888 42.000000
68.233371 41.000000
68.252853 61.000000
68.272335 54.000000
68.291818 56.000000
68.311300 54.000000
68.330782 49.000000
68.350265 45.000000
68.369747 38.000000
68.389230 54.000000
68.408712 33.000000
68.428194 49.000000
68.447677 51.000000
68.467159 45.000000
68.486641 50.000000
68.506124 47.000000
68.525606 62.000000
68.545089 53.000000
68.564571 59.000000
68.584053 30.000000
68.603536 45.000000
68.623018 44.000000
68.642500 40.000000
68.661983 38.000000
68.681465 53.000000
68.700947 51.000000
68.720430 36.000000
68.739912 52.000000
68.759395 41.000000
68.778877 46.000000
68.798359 40.000000
68.817842 64.000000
68.837324 35.000000
68.856806 43.000000
68.876289 58.000000
68.895771 50.000000
68.915254 40.000000
68.934736 46.000000
68.954218 32.000000
68.973701 51.000000
68.993183 53.000000
69.012665 47.000000
69.032148 37.000000
69.051630 44.000000
69.071112 38.000000
69.090595 42.000000
69.110077 43.000000
69.129560 45.000000
69.149042 45.000000
69.168524 47.000000
69.188007 39.000000
69.207489 44.000000
69.226971 40.000000
69.246454 57.000000
69.265936 40.000000
69.285419 55.000000
69.304901 38.000000
69.324383 35.000000
69.343866 49.000000
69.363348 57.000000
69.382830 48.000000
69.402313 44.000000
69.421795 45.000000
69.441278 48.000000
69.460760 39.000000
69.480242 38.000000
69.499725 43.000000
69.519207 48.000000
69.538689 45.000000
69.558172 47.000000
69.577654 36.000000
69.597136 47.000000
69.616619 48.000000
69.636101 45.000000
69.655584 56.000000
69.675066 58.000000
69.694548 35.000000
69.714031 48.000000
69.733513 55.000000
69.752995 55.000000
69.772478 61.000000
69.791960 58.000000
69.811443 37.000000
69.830925 43.000000
69.850407 41.000000
69.869890 48.000000
69.889372 62.000000
69.908854 49.000000
69.928337 44.000000
69.947819 63.000000
69.967301 57.000000
69.986784 42.000000
70.006266 55.000000
70.025749 51.000000
