4.000000 1514.000000
4.019482 1461.000000
4.038965 1453.000000
4.058447 1369.000000
4.077929 1416.000000
4.097412 1390.000000
4.116894 1405.000000
4.136377 1419.000000
4.155859 1343.000000
4.175341 1372.000000
4.194824 1339.000000
4.214306 1347.000000
4.233788 1337.000000
4.253271 1359.000000
4.272753 1283.000000
4.292236 1305.000000
4.311718 1226.000000
4.331200 1315.000000
4.350683 1303.000000
4.370165 1243.000000
4.389647 1263.000000
4.409130 1217.000000
4.428612 1270.000000
4.448094 1243.000000
4.467577 1250.000000
4.487059 1284.000000
4.506542 1256.000000
4.526024 1156.000000
4.545506 1196.000000
4.564989 1217.000000
4.584471 1210.000000
4.603953 1151.000000
4.623436 1218.000000
4.642918 1179.000000
4.662401 1163.000000
4.681883 1230.000000
4.701365 1180.000000
4.720848 1183.000000
4.740330 1228.000000
4.759812 1201.000000
4.779295 1161.000000
4.798777 1141.000000
4.818259 1204.000000
4.837742 1141.000000
4.857224 1104.000000
4.876707 1132.000000
4.896189 1097.000000
4.915671 1114.000000
4.935154 1092.000000
4.954636 1134.000000
4.974118 1156.000000
4.993601 1182.000000
5.013083 1165.000000
5.032566 1110.000000
5.052048 1105.000000
5.071530 1123.000000
5.091013 1140.000000
5.110495 1077.000000
5.129977 1090.000000
5.149460 1074.000000
5.168942 1106.000000
5.188425 1077.000000
5.207907 1156.000000
5.227389 1140.000000
5.246872 1135.000000
5.266354 1128.000000
5.285836 1066.000000
5.305319 1074.000000
5.324801 1063.000000
5.344283 1062.000000
5.363766 1138.000000
5.383248 1121.000000
5.402731 1061.000000
5.422213 1158.000000
5.441695 1115.000000
5.461178 1139.000000
5.480660 1133.000000
5.500142 1110.000000
5.519625 1121.000000
5.539107 1101.000000
5.558590 1146.000000
5.578072 1147.000000
5.597554 1095.000000
5.617037 1136.000000
5.636519 1199.000000
5.656001 1209.000000
5.675484 1143.000000
5.694966 1198.000000
5.714448 1163.000000
5.733931 1193.000000
5.753413 1290.000000
5.772896 1342.000000
5.792378 1374.000000
5.811860 1479.000000
5.831343 1471.000000
5.850825 1524.000000
5.870307 1586.000000
5.889790 1466.000000
5.909272 1385.000000
5.928755 1277.000000
5.948237 1270.000000
5.967719 1253.000000
5.987202 1168.000000
6.006684 1228.000000
6.026166 1251.000000
6.045649 1202.000000
6.065131 1137.000000
6.084613 1158.000000
6.104096 1148.000000
6.123578 1101.000000
6.143061 1151.000000
6.162543 1127.000000
6.182025 1170.000000
6.201508 1191.000000
6.220990 1166.000000
6.240472 1229.000000
6.259955 1179.000000
6.279437 1064.000000
6.298920 1110.000000
6.318402 1018.000000
6.337884 1035.000000
6.357367 989.000000
6.376849 1062.000000
6.396331 1008.000000
6.415814 980.000000
6.435296 1035.000000
6.454778 1024.000000
6.474261 1028.000000
6.493743 1038.000000
6.513226 1053.000000
6.532708 1031.000000
6.552190 1049.000000
6.571673 1027.000000
6.591155 1014.000000
6.610637 1061.000000
6.630120 973.000000
6.649602 976.000000
6.669085 1068.000000
6.688567 984.000000
6.708049 1027.000000
6.727532 1014.000000
6.747014 1028.000000
6.766496 975.000000
6.785979 1003.000000
6.805461 1030.000000
6.824944 969.000000
6.844426 1030.000000
6.863908 960.000000
6.883391 1039.000000
6.902873 964.000000
6.922355 962.000000
6.941838 999.000000
6.961320 956.000000
6.980802 918.000000
7.000285 950.000000
7.019767 1011.000000
7.039250 1005.000000
7.058732 958.000000
7.078214 969.000000
7.097697 956.000000
7.117179 956.000000
7.136661 1042.000000
7.156144 1006.000000
7.175626 1020.000000
7.195109 976.000000
7.214591 961.000000
7.234073 1029.000000
7.253556 993.000000
7.273038 1018.000000
7.292520 945.000000
7.312003 984.000000
7.331485 976.000000
7.350967 991.000000
7.370450 977.000000
7.389932 994.000000
7.409415 966.000000
7.428897 989.000000
7.448379 983.000000
7.467862 982.000000
7.487344 1008.000000
7.506826 1031.000000
7.526309 992.000000
7.545791 917.000000
7.565274 940.000000
7.584756 943.000000
7.604238 980.000000
7.623721 981.000000
7.643203 997.000000
7.662685 931.000000
7.682168 975.000000
7.701650 951.000000
7.721132 906.000000
7.740615 953.000000
7.760097 970.000000
7.779580 980.000000
7.799062 1060.000000
7.818544 960.000000
7.838027 993.000000
7.857509 976.000000
7.876991 970.000000
7.896474 997.000000
7.915956 978.000000
7.935439 962.000000
7.954921 937.000000
7.974403 1011.000000
7.993886 998.000000
8.013368 983.000000
8.032850 968.000000
8.052333 960.000000
8.071815 978.000000
8.091297 987.000000
8.110780 962.000000
8.130262 997.000000
8.149745 975.000000
8.169227 947.000000
8.188709 970.000000
8.208192 936.000000
8.227674 986.000000
8.247156 970.000000
8.266639 971.000000
8.286121 937.000000
8.305604 964.000000
8.325086 961.000000
8.344568 992.000000
8.364051 1000.000000
8.383533 987.000000
8.403015 990.000000
8.422498 990.000000
8.441980 930.000000
8.461463 1000.000000
8.480945 959.000000
8.500427 948.000000
8.519910 931.000000
8.539392 1027.000000
8.558874 986.000000
8.578357 969.000000
8.597839 981.000000
8.617321 996.000000
8.636804 976.000000
8.656286 980.000000
8.675769 1016.000000
8.695251 988.000000
8.714733 963.000000
8.734216 975.000000
8.753698 1023.000000
8.773180 956.000000
8.792663 994.000000
8.812145 1016.000000
8.831628 923.000000
8.851110 989.000000
8.870592 997.000000
8.890075 960.000000
8.909557 950.000000
8.929039 924.000000
8.948522 994.000000
8.968004 965.000000
8.987486 956.000000
9.006969 1028.000000
9.026451 968.000000
9.045934 947.000000
9.065416 961.000000
9.084898 971.000000
9.104381 952.000000
9.123863 927.000000
9.143345 991.000000
9.162828 959.000000
9.182310 914.000000
9.201793 955.000000
9.221275 1024.000000
9.240757 1048.000000
9.260240 991.000000
9.279722 977.000000
9.299204 984.000000
9.318687 997.000000
9.338169 999.000000
9.357651 1045.000000
9.377134 1085.000000
9.396616 1155.000000
9.416099 1232.000000
9.435581 1300.000000
9.455063 1362.000000
9.474546 1293.000000
9.494028 1147.000000
9.513510 1030.000000
9.532993 1018.000000
9.552475 984.000000
9.571958 1008.000000
9.591440 964.000000
9.610922 972.000000
9.630405 941.000000
9.649887 956.000000
9.669369 927.000000
9.688852 981.000000
9.708334 970.000000
9.727816 963.000000
9.747299 999.000000
9.766781 970.000000
9.786264 1028.000000
9.805746 972.000000
9.825228 938.000000
9.844711 924.000000
9.864193 971.000000
9.883675 913.000000
9.903158 957.000000
9.922640 999.000000
9.942123 974.000000
9.961605 958.000000
9.981087 979.000000
10.000570 948.000000
10.020052 958.000000
10.039534 938.000000
10.059017 927.000000
10.078499 996.000000
10.097982 992.000000
10.117464 963.000000
10.136946 943.000000
10.156429 1006.000000
10.175911 958.000000
10.195393 991.000000
10.214876 963.000000
10.234358 944.000000
10.253840 943.000000
10.273323 946.000000
10.292805 944.000000
10.312288 964.000000
10.331770 967.000000
10.351252 985.000000
10.370735 956.000000
10.390217 959.000000
10.409699 963.000000
10.429182 1005.000000
10.448664 1007.000000
10.468147 1056.000000
10.487629 1030.000000
10.507111 986.000000
10.526594 997.000000
10.546076 973.000000
10.565558 943.000000
10.585041 944.000000
10.604523 915.000000
10.624005 1032.000000
10.643488 1011.000000
10.662970 951.000000
10.682453 938.000000
10.701935 971.000000
10.721417 930.000000
10.740900 987.000000
10.760382 975.000000
10.779864 1027.000000
10.799347 918.000000
10.818829 972.000000
10.838312 948.000000
10.857794 983.000000
10.877276 965.000000
10.896759 928.000000
10.916241 949.000000
10.935723 980.000000
10.955206 936.000000
10.974688 996.000000
10.994170 932.000000
11.013653 951.000000
11.033135 905.000000
11.052618 926.000000
11.072100 902.000000
11.091582 927.000000
11.111065 891.000000
11.130547 937.000000
11.150029 949.000000
11.169512 921.000000
11.188994 928.000000
11.208477 964.000000
11.227959 961.000000
11.247441 969.000000
11.266924 895.000000
11.286406 962.000000
11.305888 923.000000
11.325371 978.000000
11.344853 928.000000
11.364335 987.000000
11.383818 968.000000
11.403300 907.000000
11.422783 975.000000
11.442265 936.000000
11.461747 937.000000
11.481230 996.000000
11.500712 944.000000
11.520194 996.000000
11.539677 966.000000
11.559159 975.000000
11.578642 941.000000
11.598124 992.000000
11.617606 963.000000
11.637089 947.000000
11.656571 967.000000
11.676053 946.000000
11.695536 1000.000000
11.715018 963.000000
11.734500 950.000000
11.753983 981.000000
11.773465 954.000000
11.792948 915.000000
11.812430 918.000000
11.831912 975.000000
11.851395 977.000000
11.870877 933.000000
11.890359 956.000000
11.909842 1007.000000
11.929324 966.000000
11.948807 937.000000
11.968289 985.000000
11.987771 969.000000
12.007254 927.000000
12.026736 943.000000
12.046218 946.000000
12.065701 919.000000
12.085183 999.000000
12.104666 1011.000000
12.124148 911.000000
12.143630 979.000000
12.163113 966.000000
12.182595 983.000000
12.202077 922.000000
12.221560 983.000000
12.241042 964.000000
12.260524 973.000000
12.280007 968.000000
12.299489 1008.000000
12.318972 957.000000
12.338454 1018.000000
12.357936 1000.000000
12.377419 1026.000000
12.396901 1092.000000
12.416383 995.000000
12.435866 1103.000000
12.455348 1214.000000
12.474831 1141.000000
12.494313 1130.000000
12.513795 1043.000000
12.533278 983.000000
12.552760 979.000000
12.572242 1014.000000
12.591725 968.000000
12.611207 916.000000
12.630689 975.000000
12.650172 982.000000
12.669654 959.000000
12.689137 983.000000
12.708619 985.000000
12.728101 1020.000000
12.747584 1069.000000
12.767066 974.000000
12.786548 998.000000
12.806031 945.000000
12.825513 908.000000
12.844996 938.000000
12.864478 925.000000
12.883960 918.000000
12.903443 943.000000
12.922925 902.000000
12.942407 991.000000
12.961890 989.000000
12.981372 923.000000
13.000854 967.000000
13.020337 932.000000
13.039819 1006.000000
13.059302 906.000000
13.078784 934.000000
13.098266 955.000000
13.117749 988.000000
13.137231 954.000000
13.156713 997.000000
13.176196 915.000000
13.195678 940.000000
13.215161 988.000000
13.234643 957.000000
13.254125 985.000000
13.273608 958.000000
13.293090 970.000000
13.312572 984.000000
13.332055 965.000000
13.351537 933.000000
13.371019 961.000000
13.390502 1005.000000
13.409984 1001.000000
13.429467 943.000000
13.448949 924.000000
13.468431 996.000000
13.487914 943.000000
13.507396 960.000000
13.526878 961.000000
13.546361 954.000000
13.565843 962.000000
13.585326 929.000000
13.604808 1026.000000
13.624290 937.000000
13.643773 945.000000
13.663255 956.000000
13.682737 897.000000
13.702220 998.000000
13.721702 1034.000000
13.741185 960.000000
13.760667 998.000000
13.780149 997.000000
13.799632 926.000000
13.819114 974.000000
13.838596 948.000000
13.858079 937.000000
13.877561 986.000000
13.897043 941.000000
13.916526 988.000000
13.936008 946.000000
13.955491 974.000000
13.974973 956.000000
13.994455 966.000000
14.013938 960.000000
14.033420 940.000000
14.052902 903.000000
14.072385 914.000000
14.091867 972.000000
14.111350 956.000000
14.130832 942.000000
14.150314 958.000000
14.169797 1005.000000
14.189279 904.000000
14.208761 936.000000
14.228244 943.000000
14.247726 959.000000
14.267208 922.000000
14.286691 994.000000
14.306173 910.000000
14.325656 924.000000
14.345138 994.000000
14.364620 951.000000
14.384103 941.000000
14.403585 917.000000
14.423067 1000.000000
14.442550 959.000000
14.462032 982.000000
14.481515 955.000000
14.500997 930.000000
14.520479 954.000000
14.539962 931.000000
14.559444 972.000000
14.578926 953.000000
14.598409 886.000000
14.617891 952.000000
14.637373 1012.000000
14.656856 929.000000
14.676338 960.000000
14.695821 932.000000
14.715303 1023.000000
14.734785 955.000000
14.754268 951.000000
14.773750 978.000000
14.793232 961.000000
14.812715 966.000000
14.832197 949.000000
14.851680 918.000000
14.871162 906.000000
14.890644 1007.000000
14.910127 915.000000
14.929609 941.000000
14.949091 992.000000
14.968574 931.000000
14.988056 995.000000
15.007538 971.000000
15.027021 986.000000
15.046503 966.000000
15.065986 929.000000
15.085468 938.000000
15.104950 1001.000000
15.124433 981.000000
15.143915 977.000000
15.163397 971.000000
15.182880 1008.000000
15.202362 925.000000
15.221845 1042.000000
15.241327 935.000000
15.260809 984.000000
15.280292 912.000000
15.299774 911.000000
15.319256 921.000000
15.338739 978.000000
15.358221 950.000000
15.377704 992.000000
15.397186 932.000000
15.416668 944.000000
15.436151 964.000000
15.455633 984.000000
15.475115 946.000000
15.494598 916.000000
15.514080 896.000000
15.533562 977.000000
15.553045 888.000000
15.572527 978.000000
15.592010 927.000000
15.611492 906.000000
15.630974 976.000000
15.650457 925.000000
15.669939 1028.000000
15.689421 884.000000
15.708904 943.000000
15.728386 973.000000
15.747869 896.000000
15.767351 1000.000000
15.786833 959.000000
15.806316 962.000000
15.825798 953.000000
15.845280 871.000000
15.864763 901.000000
15.884245 939.000000
15.903727 929.000000
15.923210 988.000000
15.942692 1013.000000
15.962175 951.000000
15.981657 959.000000
16.001139 910.000000
16.020622 983.000000
16.040104 1002.000000
16.059586 922.000000
16.079069 929.000000
16.098551 904.000000
16.118034 977.000000
16.137516 932.000000
16.156998 932.000000
16.176481 912.000000
16.195963 928.000000
16.215445 989.000000
16.234928 965.000000
16.254410 952.000000
16.273892 953.000000
16.293375 877.000000
16.312857 956.000000
16.332340 952.000000
16.351822 998.000000
16.371304 992.000000
16.390787 925.000000
16.410269 963.000000
16.429751 983.000000
16.449234 960.000000
16.468716 937.000000
16.488199 987.000000
16.507681 943.000000
16.527163 985.000000
16.546646 987.000000
16.566128 950.000000
16.585610 939.000000
16.605093 982.000000
16.624575 907.000000
16.644057 957.000000
16.663540 956.000000
16.683022 893.000000
16.702505 985.000000
16.721987 1013.000000
16.741469 984.000000
16.760952 907.000000
16.780434 1018.000000
16.799916 901.000000
16.819399 934.000000
16.838881 933.000000
16.858364 943.000000
16.877846 940.000000
16.897328 1002.000000
16.916811 980.000000
16.936293 947.000000
16.955775 930.000000
16.975258 917.000000
16.994740 922.000000
17.014222 872.000000
17.033705 932.000000
17.053187 958.000000
17.072670 1028.000000
17.092152 1002.000000
17.111634 985.000000
17.131117 943.000000
17.150599 968.000000
17.170081 894.000000
17.189564 901.000000
17.209046 944.000000
17.228529 937.000000
17.248011 962.000000
17.267493 881.000000
17.286976 912.000000
17.306458 938.000000
17.325940 924.000000
17.345423 981.000000
17.364905 934.000000
17.384388 969.000000
17.403870 955.000000
17.423352 946.000000
17.442835 939.000000
17.462317 969.000000
17.481799 948.000000
17.501282 932.000000
17.520764 911.000000
17.540246 972.000000
17.559729 949.000000
17.579211 947.000000
17.598694 964.000000
17.618176 1009.000000
17.637658 1010.000000
17.657141 976.000000
17.676623 952.000000
17.696105 941.000000
17.715588 958.000000
17.735070 998.000000
17.754553 957.000000
17.774035 983.000000
17.793517 908.000000
17.813000 944.000000
17.832482 1015.000000
17.851964 979.000000
17.871447 989.000000
17.890929 928.000000
17.910411 925.000000
17.929894 940.000000
17.949376 910.000000
17.968859 908.000000
17.988341 924.000000
18.007823 932.000000
18.027306 942.000000
18.046788 1000.000000
18.066270 979.000000
18.085753 915.000000
18.105235 947.000000
18.124718 960.000000
18.144200 944.000000
18.163682 960.000000
18.183165 951.000000
18.202647 963.000000
18.222129 1005.000000
18.241612 1073.000000
18.261094 1105.000000
18.280576 1125.000000
18.300059 1201.000000
18.319541 1164.000000
18.339024 1165.000000
18.358506 1071.000000
18.377988 1003.000000
18.397471 971.000000
18.416953 1023.000000
18.436435 974.000000
18.455918 931.000000
18.475400 964.000000
18.494883 972.000000
18.514365 902.000000
18.533847 939.000000
18.553330 961.000000
18.572812 935.000000
18.592294 953.000000
18.611777 978.000000
18.631259 979.000000
18.650741 980.000000
18.670224 971.000000
18.689706 967.000000
18.709189 1026.000000
18.728671 1008.000000
18.748153 1081.000000
18.767636 1071.000000
18.787118 984.000000
18.806600 948.000000
18.826083 934.000000
18.845565 958.000000
18.865048 1005.000000
18.884530 881.000000
18.904012 984.000000
18.923495 981.000000
18.942977 974.000000
18.962459 980.000000
18.981942 1010.000000
19.001424 977.000000
19.020907 963.000000
19.040389 967.000000
19.059871 1012.000000
19.079354 925.000000
19.098836 941.000000
19.118318 931.000000
19.137801 982.000000
19.157283 971.000000
19.176765 1016.000000
19.196248 950.000000
19.215730 985.000000
19.235213 983.000000
19.254695 1003.000000
19.274177 934.000000
19.293660 968.000000
19.313142 974.000000
19.332624 1007.000000
19.352107 944.000000
19.371589 999.000000
19.391072 956.000000
19.410554 949.000000
19.430036 957.000000
19.449519 976.000000
19.469001 924.000000
19.488483 957.000000
19.507966 951.000000
19.527448 1026.000000
19.546930 966.000000
19.566413 941.000000
19.585895 960.000000
19.605378 980.000000
19.624860 973.000000
19.644342 995.000000
19.663825 936.000000
19.683307 1010.000000
19.702789 921.000000
19.722272 932.000000
19.741754 944.000000
19.761237 934.000000
19.780719 1001.000000
19.800201 872.000000
19.819684 971.000000
19.839166 971.000000
19.858648 968.000000
19.878131 987.000000
19.897613 964.000000
19.917095 968.000000
19.936578 996.000000
19.956060 954.000000
19.975543 943.000000
19.995025 929.000000
20.014507 971.000000
20.033990 937.000000
20.053472 968.000000
20.072954 954.000000
20.092437 1011.000000
20.111919 972.000000
20.131402 979.000000
20.150884 1004.000000
20.170366 954.000000
20.189849 990.000000
20.209331 949.000000
20.228813 965.000000
20.248296 949.000000
20.267778 915.000000
20.287260 979.000000
20.306743 980.000000
20.326225 950.000000
20.345708 906.000000
20.365190 910.000000
20.384672 884.000000
20.404155 928.000000
20.423637 982.000000
20.443119 986.000000
20.462602 968.000000
20.482084 985.000000
20.501567 960.000000
20.521049 970.000000
20.540531 889.000000
20.560014 981.000000
20.579496 976.000000
20.598978 949.000000
20.618461 912.000000
20.637943 974.000000
20.657426 965.000000
20.676908 950.000000
20.696390 943.000000
20.715873 882.000000
20.735355 987.000000
20.754837 976.000000
20.774320 957.000000
20.793802 955.000000
20.813284 975.000000
20.832767 1002.000000
20.852249 1052.000000
20.871732 1008.000000
20.891214 1009.000000
20.910696 968.000000
20.930179 1016.000000
20.949661 977.000000
20.969143 1005.000000
20.988626 978.000000
21.008108 931.000000
21.027591 993.000000
21.047073 914.000000
21.066555 1020.000000
21.086038 979.000000
21.105520 947.000000
21.125002 929.000000
21.144485 955.000000
21.163967 925.000000
21.183449 1003.000000
21.202932 916.000000
21.222414 945.000000
21.241897 922.000000
21.261379 952.000000
21.280861 1002.000000
21.300344 953.000000
21.319826 971.000000
21.339308 993.000000
21.358791 917.000000
21.378273 998.000000
21.397756 995.000000
21.417238 989.000000
21.436720 1018.000000
21.456203 889.000000
21.475685 1008.000000
21.495167 964.000000
21.514650 992.000000
21.534132 1002.000000
21.553614 955.000000
21.573097 945.000000
21.592579 946.000000
21.612062 997.000000
21.631544 971.000000
21.651026 900.000000
21.670509 967.000000
21.689991 915.000000
21.709473 942.000000
21.728956 914.000000
21.748438 991.000000
21.767921 960.000000
21.787403 951.000000
21.806885 941.000000
21.826368 995.000000
21.845850 964.000000
21.865332 941.000000
21.884815 968.000000
21.904297 950.000000
21.923779 928.000000
21.943262 914.000000
21.962744 918.000000
21.982227 957.000000
22.001709 996.000000
22.021191 991.000000
22.040674 1013.000000
22.060156 979.000000
22.079638 982.000000
22.099121 981.000000
22.118603 994.000000
22.138086 989.000000
22.157568 942.000000
22.177050 937.000000
22.196533 988.000000
22.216015 960.000000
22.235497 971.000000
22.254980 928.000000
22.274462 967.000000
22.293945 960.000000
22.313427 948.000000
22.332909 924.000000
22.352392 962.000000
22.371874 977.000000
22.391356 928.000000
22.410839 922.000000
22.430321 972.000000
22.449803 908.000000
22.469286 925.000000
22.488768 865.000000
22.508251 941.000000
22.527733 950.000000
22.547215 997.000000
22.566698 901.000000
22.586180 943.000000
22.605662 944.000000
22.625145 952.000000
22.644627 940.000000
22.664110 955.000000
22.683592 962.000000
22.703074 944.000000
22.722557 979.000000
22.742039 984.000000
22.761521 955.000000
22.781004 972.000000
22.800486 958.000000
22.819968 976.000000
22.839451 913.000000
22.858933 1030.000000
22.878416 968.000000
22.897898 917.000000
22.917380 928.000000
22.936863 924.000000
22.956345 1009.000000
22.975827 964.000000
22.995310 988.000000
23.014792 995.000000
23.034275 1001.000000
23.053757 1017.000000
23.073239 1039.000000
23.092722 1053.000000
23.112204 1002.000000
23.131686 1015.000000
23.151169 975.000000
23.170651 980.000000
23.190133 992.000000
23.209616 943.000000
23.229098 956.000000
23.248581 984.000000
23.268063 961.000000
23.287545 956.000000
23.307028 937.000000
23.326510 948.000000
23.345992 1006.000000
23.365475 981.000000
23.384957 953.000000
23.404440 1009.000000
23.423922 1021.000000
23.443404 920.000000
23.462887 968.000000
23.482369 949.000000
23.501851 1008.000000
23.521334 968.000000
23.540816 929.000000
23.560298 923.000000
23.579781 991.000000
23.599263 983.000000
23.618746 934.000000
23.638228 1025.000000
23.657710 1011.000000
23.677193 929.000000
23.696675 955.000000
23.716157 922.000000
23.735640 909.000000
23.755122 980.000000
23.774605 978.000000
23.794087 944.000000
23.813569 956.000000
23.833052 989.000000
23.852534 1022.000000
23.872016 966.000000
23.891499 970.000000
23.910981 947.000000
23.930463 1052.000000
23.949946 1023.000000
23.969428 965.000000
23.988911 981.000000
24.008393 974.000000
24.027875 956.000000
24.047358 947.000000
24.066840 952.000000
24.086322 918.000000
24.105805 937.000000
24.125287 961.000000
24.144770 964.000000
24.164252 1049.000000
24.183734 1007.000000
24.203217 981.000000
24.222699 943.000000
24.242181 978.000000
24.261664 995.000000
24.281146 963.000000
24.300629 963.000000
24.320111 983.000000
24.339593 929.000000
24.359076 987.000000
24.378558 981.000000
24.398040 971.000000
24.417523 958.000000
24.437005 931.000000
24.456487 890.000000
24.475970 956.000000
24.495452 955.000000
24.514935 978.000000
24.534417 926.000000
24.553899 953.000000
24.573382 932.000000
24.592864 1004.000000
24.612346 990.000000
24.631829 970.000000
24.651311 1009.000000
24.670794 954.000000
24.690276 937.000000
24.709758 914.000000
24.729241 976.000000
24.748723 1002.000000
24.768205 1053.000000
24.787688 1009.000000
24.807170 989.000000
24.826652 921.000000
24.846135 984.000000
24.865617 992.000000
24.885100 977.000000
24.904582 972.000000
24.924064 962.000000
24.943547 1009.000000
24.963029 1018.000000
24.982511 1091.000000
25.001994 1070.000000
25.021476 1019.000000
25.040959 1064.000000
25.060441 1060.000000
25.079923 1018.000000
25.099406 1060.000000
25.118888 1024.000000
25.138370 1000.000000
25.157853 1038.000000
25.177335 1037.000000
25.196817 993.000000
25.216300 944.000000
25.235782 933.000000
25.255265 980.000000
25.274747 933.000000
25.294229 1017.000000
25.313712 962.000000
25.333194 944.000000
25.352676 961.000000
25.372159 980.000000
25.391641 1031.000000
25.411124 955.000000
25.430606 982.000000
25.450088 1011.000000
25.469571 985.000000
25.489053 972.000000
25.508535 946.000000
25.528018 956.000000
25.547500 967.000000
25.566982 969.000000
25.586465 967.000000
25.605947 951.000000
25.625430 1002.000000
25.644912 988.000000
25.664394 919.000000
25.683877 929.000000
25.703359 954.000000
25.722841 921.000000
25.742324 1001.000000
25.761806 993.000000
25.781289 936.000000
25.800771 1002.000000
25.820253 987.000000
25.839736 1007.000000
25.859218 1009.000000
25.878700 931.000000
25.898183 985.000000
25.917665 948.000000
25.937148 918.000000
25.956630 1007.000000
25.976112 961.000000
25.995595 943.000000
26.015077 1025.000000
26.034559 939.000000
26.054042 944.000000
26.073524 952.000000
26.093006 999.000000
26.112489 960.000000
26.131971 990.000000
26.151454 1030.000000
26.170936 980.000000
26.190418 953.000000
26.209901 979.000000
26.229383 923.000000
26.248865 958.000000
26.268348 1004.000000
26.287830 957.000000
26.307313 932.000000
26.326795 998.000000
26.346277 971.000000
26.365760 1007.000000
26.385242 938.000000
26.404724 1020.000000
26.424207 998.000000
26.443689 973.000000
26.463171 968.000000
26.482654 959.000000
26.502136 958.000000
26.521619 1002.000000
26.541101 998.000000
26.560583 995.000000
26.580066 996.000000
26.599548 1109.000000
26.619030 1220.000000
26.638513 1443.000000
26.657995 1482.000000
26.677478 1255.000000
26.696960 1159.000000
26.716442 1175.000000
26.735925 1121.000000
26.755407 1024.000000
26.774889 981.000000
26.794372 944.000000
26.813854 1005.000000
26.833336 977.000000
26.852819 941.000000
26.872301 1001.000000
26.891784 983.000000
26.911266 929.000000
26.930748 972.000000
26.950231 984.000000
26.969713 971.000000
26.989195 952.000000
27.008678 959.000000
27.028160 1004.000000
27.047643 1037.000000
27.067125 974.000000
27.086607 1041.000000
27.106090 1001.000000
27.125572 976.000000
27.145054 1016.000000
27.164537 990.000000
27.184019 1022.000000
27.203501 1027.000000
27.222984 953.000000
27.242466 987.000000
27.261949 955.000000
27.281431 934.000000
27.300913 991.000000
27.320396 993.000000
27.339878 992.000000
27.359360 1022.000000
27.378843 969.000000
27.398325 959.000000
27.417808 1035.000000
27.437290 922.000000
27.456772 948.000000
27.476255 909.000000
27.495737 975.000000
27.515219 964.000000
27.534702 941.000000
27.554184 956.000000
27.573667 962.000000
27.593149 947.000000
27.612631 1002.000000
27.632114 913.000000
27.651596 1003.000000
27.671078 996.000000
27.690561 918.000000
27.710043 993.000000
27.729525 962.000000
27.749008 948.000000
27.768490 1018.000000
27.787973 983.000000
27.807455 931.000000
27.826937 1056.000000
27.846420 977.000000
27.865902 1015.000000
27.885384 955.000000
27.904867 1030.000000
27.924349 943.000000
27.943832 1000.000000
27.963314 923.000000
27.982796 953.000000
28.002279 943.000000
28.021761 937.000000
28.041243 1019.000000
28.060726 983.000000
28.080208 926.000000
28.099690 979.000000
28.119173 970.000000
28.138655 976.000000
28.158138 1007.000000
28.177620 996.000000
28.197102 949.000000
28.216585 1002.000000
28.236067 973.000000
28.255549 995.000000
28.275032 990.000000
28.294514 933.000000
28.313997 1044.000000
28.333479 1020.000000
28.352961 998.000000
28.372444 980.000000
28.391926 951.000000
28.411408 979.000000
28.430891 1018.000000
28.450373 986.000000
28.469855 1028.000000
28.489338 997.000000
28.508820 1020.000000
28.528303 1059.000000
28.547785 1089.000000
28.567267 1077.000000
28.586750 1154.000000
28.606232 1185.000000
28.625714 1136.000000
28.645197 1100.000000
28.664679 1102.000000
28.684162 1085.000000
28.703644 1039.000000
28.723126 981.000000
28.742609 1034.000000
28.762091 966.000000
28.781573 1008.000000
28.801056 989.000000
28.820538 1018.000000
28.840020 1024.000000
28.859503 986.000000
28.878985 994.000000
28.898468 918.000000
28.917950 995.000000
28.937432 1003.000000
28.956915 976.000000
28.976397 1020.000000
28.995879 965.000000
29.015362 979.000000
29.034844 986.000000
29.054327 1013.000000
29.073809 988.000000
29.093291 1026.000000
29.112774 1027.000000
29.132256 934.000000
29.151738 1008.000000
29.171221 1002.000000
29.190703 955.000000
29.210185 1000.000000
29.229668 1043.000000
29.249150 1061.000000
29.268633 1052.000000
29.288115 1085.000000
29.307597 1100.000000
29.327080 1168.000000
29.346562 1338.000000
29.366044 1681.000000
29.385527 2241.000000
29.405009 2259.000000
29.424492 2058.000000
29.443974 1873.000000
29.463456 1930.000000
29.482939 1787.000000
29.502421 1579.000000
29.521903 1335.000000
29.541386 1207.000000
29.560868 1144.000000
29.580351 1106.000000
29.599833 1032.000000
29.619315 1108.000000
29.638798 1001.000000
29.658280 1047.000000
29.677762 1056.000000
29.697245 1018.000000
29.716727 1121.000000
29.736209 976.000000
29.755692 1030.000000
29.775174 1012.000000
29.794657 971.000000
29.814139 982.000000
29.833621 962.000000
29.853104 974.000000
29.872586 1012.000000
29.892068 1056.000000
29.911551 998.000000
29.931033 937.000000
29.950516 1049.000000
29.969998 1076.000000
29.989480 1054.000000
30.008963 1098.000000
30.028445 1186.000000
30.047927 1416.000000
30.067410 1578.000000
30.086892 1645.000000
30.106374 1385.000000
30.125857 1389.000000
30.145339 1328.000000
30.164822 1351.000000
30.184304 1142.000000
30.203786 1059.000000
30.223269 1038.000000
30.242751 991.000000
30.262233 997.000000
30.281716 1029.000000
30.301198 1009.000000
30.320681 978.000000
30.340163 1011.000000
30.359645 984.000000
30.379128 998.000000
30.398610 985.000000
30.418092 985.000000
30.437575 1003.000000
30.457057 974.000000
30.476539 975.000000
30.496022 1010.000000
30.515504 973.000000
30.534987 974.000000
30.554469 975.000000
30.573951 930.000000
30.593434 928.000000
30.612916 957.000000
30.632398 1007.000000
30.651881 1038.000000
30.671363 1023.000000
30.690846 959.000000
30.710328 1037.000000
30.729810 990.000000
30.749293 1059.000000
30.768775 988.000000
30.788257 972.000000
30.807740 985.000000
30.827222 991.000000
30.846704 986.000000
30.866187 1008.000000
30.885669 1004.000000
30.905152 981.000000
30.924634 1025.000000
30.944116 994.000000
30.963599 947.000000
30.983081 962.000000
31.002563 981.000000
31.022046 966.000000
31.041528 1004.000000
31.061011 977.000000
31.080493 1021.000000
31.099975 949.000000
31.119458 969.000000
31.138940 979.000000
31.158422 970.000000
31.177905 1014.000000
31.197387 1010.000000
31.216870 993.000000
31.236352 977.000000
31.255834 1027.000000
31.275317 1017.000000
31.294799 987.000000
31.314281 1014.000000
31.333764 1030.000000
31.353246 970.000000
31.372728 1029.000000
31.392211 975.000000
31.411693 1031.000000
31.431176 1053.000000
31.450658 1095.000000
31.470140 1185.000000
31.489623 1095.000000
31.509105 1116.000000
31.528587 1030.000000
31.548070 1047.000000
31.567552 1056.000000
31.587035 1043.000000
31.606517 1039.000000
31.625999 1029.000000
31.645482 965.000000
31.664964 948.000000
31.684446 1039.000000
31.703929 995.000000
31.723411 947.000000
31.742893 992.000000
31.762376 990.000000
31.781858 1018.000000
31.801341 1056.000000
31.820823 939.000000
31.840305 1034.000000
31.859788 1019.000000
31.879270 1035.000000
31.898752 1048.000000
31.918235 1039.000000
31.937717 1003.000000
31.957200 1088.000000
31.976682 1017.000000
31.996164 997.000000
32.015647 1039.000000
32.035129 970.000000
32.054611 995.000000
32.074094 986.000000
32.093576 985.000000
32.113058 951.000000
32.132541 982.000000
32.152023 975.000000
32.171506 988.000000
32.190988 983.000000
32.210470 996.000000
32.229953 955.000000
32.249435 994.000000
32.268917 981.000000
32.288400 1008.000000
32.307882 960.000000
32.327365 1001.000000
32.346847 972.000000
32.366329 926.000000
32.385812 970.000000
32.405294 1016.000000
32.424776 983.000000
32.444259 1043.000000
32.463741 1002.000000
32.483223 1052.000000
32.502706 996.000000
32.522188 971.000000
32.541671 1004.000000
32.561153 982.000000
32.580635 1023.000000
32.600118 1007.000000
32.619600 1059.000000
32.639082 1006.000000
32.658565 1059.000000
32.678047 1002.000000
32.697530 1004.000000
32.717012 968.000000
32.736494 1020.000000
32.755977 1000.000000
32.775459 1007.000000
32.794941 1041.000000
32.814424 992.000000
32.833906 1001.000000
32.853389 902.000000
32.872871 992.000000
32.892353 997.000000
32.911836 1044.000000
32.931318 1007.000000
32.950800 1022.000000
32.970283 991.000000
32.989765 1029.000000
33.009247 932.000000
33.028730 1004.000000
33.048212 1055.000000
33.067695 989.000000
33.087177 996.000000
33.106659 988.000000
33.126142 928.000000
33.145624 1050.000000
33.165106 1075.000000
33.184589 1132.000000
33.204071 1102.000000
33.223554 1276.000000
33.243036 1299.000000
33.262518 1207.000000
33.282001 1094.000000
33.301483 1181.000000
33.320965 1209.000000
33.340448 1115.000000
33.359930 993.000000
33.379412 972.000000
33.398895 1017.000000
33.418377 997.000000
33.437860 1022.000000
33.457342 991.000000
33.476824 987.000000
33.496307 924.000000
33.515789 982.000000
33.535271 1000.000000
33.554754 948.000000
33.574236 947.000000
33.593719 931.000000
33.613201 1021.000000
33.632683 1013.000000
33.652166 977.000000
33.671648 1041.000000
33.691130 1020.000000
33.710613 999.000000
33.730095 977.000000
33.749577 1063.000000
33.769060 1068.000000
33.788542 1008.000000
33.808025 989.000000
33.827507 975.000000
33.846989 1054.000000
33.866472 1013.000000
33.885954 981.000000
33.905436 1015.000000
33.924919 964.000000
33.944401 924.000000
33.963884 1032.000000
33.983366 955.000000
34.002848 962.000000
34.022331 993.000000
34.041813 962.000000
34.061295 1074.000000
34.080778 1055.000000
34.100260 975.000000
34.119742 1033.000000
34.139225 1011.000000
34.158707 1000.000000
34.178190 1071.000000
34.197672 984.000000
34.217154 1045.000000
34.236637 999.000000
34.256119 1033.000000
34.275601 1011.000000
34.295084 1009.000000
34.314566 1058.000000
34.334049 1004.000000
34.353531 997.000000
34.373013 1034.000000
34.392496 1080.000000
34.411978 990.000000
34.431460 1019.000000
34.450943 969.000000
34.470425 1070.000000
34.489908 1046.000000
34.509390 1016.000000
34.528872 1026.000000
34.548355 994.000000
34.567837 984.000000
34.587319 1016.000000
34.606802 982.000000
34.626284 1055.000000
34.645766 1050.000000
34.665249 976.000000
34.684731 1023.000000
34.704214 1032.000000
34.723696 1028.000000
34.743178 1029.000000
34.762661 1021.000000
34.782143 1088.000000
34.801625 1042.000000
34.821108 991.000000
34.840590 982.000000
34.860073 1036.000000
34.879555 991.000000
34.899037 1017.000000
34.918520 980.000000
34.938002 1053.000000
34.957484 1055.000000
34.976967 989.000000
34.996449 1036.000000
35.015931 998.000000
35.035414 1032.000000
35.054896 978.000000
35.074379 1014.000000
35.093861 1014.000000
35.113343 983.000000
35.132826 1023.000000
35.152308 1074.000000
35.171790 1058.000000
35.191273 1074.000000
35.210755 1164.000000
35.230238 1127.000000
35.249720 1097.000000
35.269202 1155.000000
35.288685 1144.000000
35.308167 1185.000000
35.327649 1240.000000
35.347132 1319.000000
35.366614 1694.000000
35.386096 2204.000000
35.405579 3024.000000
35.425061 3635.000000
35.444544 3384.000000
35.464026 2689.000000
35.483508 2331.000000
35.502991 2383.000000
35.522473 2427.000000
35.541955 2106.000000
35.561438 1683.000000
35.580920 1363.000000
35.600403 1231.000000
35.619885 1148.000000
35.639367 1093.000000
35.658850 1157.000000
35.678332 1140.000000
35.697814 1081.000000
35.717297 1071.000000
35.736779 1064.000000
35.756261 1107.000000
35.775744 1060.000000
35.795226 1094.000000
35.814709 1059.000000
35.834191 1035.000000
35.853673 1023.000000
35.873156 993.000000
35.892638 1003.000000
35.912120 1024.000000
35.931603 1041.000000
35.951085 1072.000000
35.970568 1126.000000
35.990050 1109.000000
36.009532 1075.000000
36.029015 997.000000
36.048497 1123.000000
36.067979 1101.000000
36.087462 1047.000000
36.106944 1063.000000
36.126426 1070.000000
36.145909 968.000000
36.165391 1036.000000
36.184874 1081.000000
36.204356 1014.000000
36.223838 993.000000
36.243321 1085.000000
36.262803 1026.000000
36.282285 1075.000000
36.301768 1046.000000
36.321250 1003.000000
36.340733 1032.000000
36.360215 1091.000000
36.379697 1040.000000
36.399180 1049.000000
36.418662 1024.000000
36.438144 1083.000000
36.457627 1000.000000
36.477109 1084.000000
36.496592 1120.000000
36.516074 1171.000000
36.535556 1150.000000
36.555039 1135.000000
36.574521 1141.000000
36.594003 1112.000000
36.613486 1142.000000
36.632968 1105.000000
36.652450 1095.000000
36.671933 1061.000000
36.691415 1052.000000
36.710898 1057.000000
36.730380 1045.000000
36.749862 1034.000000
36.769345 1008.000000
36.788827 1061.000000
36.808309 1018.000000
36.827792 1022.000000
36.847274 990.000000
36.866757 980.000000
36.886239 1033.000000
36.905721 959.000000
36.925204 1026.000000
36.944686 1036.000000
36.964168 1048.000000
36.983651 1032.000000
37.003133 1050.000000
37.022615 1074.000000
37.042098 1193.000000
37.061580 1202.000000
37.081063 1120.000000
37.100545 1089.000000
37.120027 1066.000000
37.139510 1128.000000
37.158992 1092.000000
37.178474 1049.000000
37.197957 1072.000000
37.217439 996.000000
37.236922 1041.000000
37.256404 1013.000000
37.275886 1041.000000
37.295369 1046.000000
37.314851 1054.000000
37.334333 1029.000000
37.353816 1044.000000
37.373298 1001.000000
37.392780 1002.000000
37.412263 1047.000000
37.431745 1007.000000
37.451228 1042.000000
37.470710 1043.000000
37.490192 1071.000000
37.509675 1064.000000
37.529157 1027.000000
37.548639 1066.000000
37.568122 1059.000000
37.587604 1004.000000
37.607087 1097.000000
37.626569 999.000000
37.646051 1059.000000
37.665534 1019.000000
37.685016 994.000000
37.704498 994.000000
37.723981 1075.000000
37.743463 1004.000000
37.762945 1065.000000
37.782428 1022.000000
37.801910 1046.000000
37.821393 987.000000
37.840875 1068.000000
37.860357 967.000000
37.879840 980.000000
37.899322 1036.000000
37.918804 977.000000
37.938287 1024.000000
37.957769 1030.000000
37.977252 1011.000000
37.996734 1025.000000
38.016216 1034.000000
38.035699 1078.000000
38.055181 1053.000000
38.074663 1007.000000
38.094146 992.000000
38.113628 1028.000000
38.133111 1030.000000
38.152593 1073.000000
38.172075 1026.000000
38.191558 1024.000000
38.211040 1010.000000
38.230522 1044.000000
38.250005 1023.000000
38.269487 1056.000000
38.288969 1044.000000
38.308452 999.000000
38.327934 1019.000000
38.347417 1043.000000
38.366899 993.000000
38.386381 1052.000000
38.405864 1055.000000
38.425346 1002.000000
38.444828 1046.000000
38.464311 1040.000000
38.483793 977.000000
38.503276 1074.000000
38.522758 990.000000
38.542240 1009.000000
38.561723 1002.000000
38.581205 1047.000000
38.600687 1010.000000
38.620170 1012.000000
38.639652 1015.000000
38.659134 996.000000
38.678617 1075.000000
38.698099 1009.000000
38.717582 984.000000
38.737064 1006.000000
38.756546 1016.000000
38.776029 1067.000000
38.795511 1028.000000
38.814993 1016.000000
38.834476 976.000000
38.853958 1016.000000
38.873441 1090.000000
38.892923 1034.000000
38.912405 1084.000000
38.931888 1021.000000
38.951370 989.000000
38.970852 1043.000000
38.990335 1023.000000
39.009817 1030.000000
39.029299 1038.000000
39.048782 1043.000000
39.068264 1017.000000
39.087747 1008.000000
39.107229 1055.000000
39.126711 998.000000
39.146194 1052.000000
39.165676 1021.000000
39.185158 982.000000
39.204641 1010.000000
39.224123 989.000000
39.243606 1000.000000
39.263088 1000.000000
39.282570 1037.000000
39.302053 1011.000000
39.321535 1030.000000
39.341017 1010.000000
39.360500 1034.000000
39.379982 1083.000000
39.399464 1107.000000
39.418947 1208.000000
39.438429 1200.000000
39.457912 1122.000000
39.477394 1112.000000
39.496876 1159.000000
39.516359 1138.000000
39.535841 1138.000000
39.555323 1140.000000
39.574806 1092.000000
39.594288 1067.000000
39.613771 1070.000000
39.633253 1050.000000
39.652735 1037.000000
39.672218 970.000000
39.691700 1051.000000
39.711182 1040.000000
39.730665 1068.000000
39.750147 989.000000
39.769630 1045.000000
39.789112 1029.000000
39.808594 1005.000000
39.828077 1018.000000
39.847559 1005.000000
39.867041 1008.000000
39.886524 1067.000000
39.906006 1025.000000
39.925488 1007.000000
39.944971 1002.000000
39.964453 1031.000000
39.983936 1047.000000
40.003418 1032.000000
40.022900 1033.000000
40.042383 1010.000000
40.061865 1029.000000
40.081347 1004.000000
40.100830 1036.000000
40.120312 1072.000000
40.139795 1009.000000
40.159277 1048.000000
40.178759 987.000000
40.198242 1011.000000
40.217724 1004.000000
40.237206 1004.000000
40.256689 1038.000000
40.276171 1060.000000
40.295653 974.000000
40.315136 1054.000000
40.334618 1096.000000
40.354101 1031.000000
40.373583 1017.000000
40.393065 1040.000000
40.412548 1001.000000
40.432030 1014.000000
40.451512 993.000000
40.470995 1024.000000
40.490477 1006.000000
40.509960 1029.000000
40.529442 977.000000
40.548924 1066.000000
40.568407 990.000000
40.587889 1033.000000
40.607371 1032.000000
40.626854 1036.000000
40.646336 1056.000000
40.665818 1071.000000
40.685301 1055.000000
40.704783 1066.000000
40.724266 1067.000000
40.743748 991.000000
40.763230 1029.000000
40.782713 1059.000000
40.802195 1099.000000
40.821677 1108.000000
40.841160 1012.000000
40.860642 1093.000000
40.880125 1063.000000
40.899607 1015.000000
40.919089 1045.000000
40.938572 1056.000000
40.958054 1071.000000
40.977536 1040.000000
40.997019 1035.000000
41.016501 1000.000000
41.035983 1042.000000
41.055466 1047.000000
41.074948 1036.000000
41.094431 1042.000000
41.113913 972.000000
41.133395 980.000000
41.152878 1057.000000
41.172360 1053.000000
41.191842 1045.000000
41.211325 1060.000000
41.230807 1078.000000
41.250290 1018.000000
41.269772 1052.000000
41.289254 1028.000000
41.308737 964.000000
41.328219 1043.000000
41.347701 1050.000000
41.367184 1025.000000
41.386666 1032.000000
41.406149 1036.000000
41.425631 994.000000
41.445113 1059.000000
41.464596 1028.000000
41.484078 990.000000
41.503560 978.000000
41.523043 1051.000000
41.542525 1051.000000
41.562007 941.000000
41.581490 992.000000
41.600972 989.000000
41.620455 1029.000000
41.639937 991.000000
41.659419 1063.000000
41.678902 1013.000000
41.698384 1062.000000
41.717866 998.000000
41.737349 1049.000000
41.756831 995.000000
41.776314 1028.000000
41.795796 1033.000000
41.815278 1011.000000
41.834761 1020.000000
41.854243 1012.000000
41.873725 1012.000000
41.893208 1061.000000
41.912690 1069.000000
41.932172 1080.000000
41.951655 1039.000000
41.971137 1031.000000
41.990620 1053.000000
42.010102 1069.000000
42.029584 1014.000000
42.049067 1006.000000
42.068549 988.000000
42.088031 1001.000000
42.107514 1004.000000
42.126996 1003.000000
42.146479 1048.000000
42.165961 1052.000000
42.185443 1080.000000
42.204926 1026.000000
42.224408 1097.000000
42.243890 1051.000000
42.263373 1083.000000
42.282855 1030.000000
42.302337 1050.000000
42.321820 1047.000000
42.341302 1047.000000
42.360785 1117.000000
42.380267 1067.000000
42.399749 1074.000000
42.419232 1053.000000
42.438714 1048.000000
42.458196 1071.000000
42.477679 1051.000000
42.497161 1043.000000
42.516644 1031.000000
42.536126 1038.000000
42.555608 1038.000000
42.575091 990.000000
42.594573 1032.000000
42.614055 1067.000000
42.633538 1052.000000
42.653020 996.000000
42.672502 1051.000000
42.691985 1039.000000
42.711467 1051.000000
42.730950 1011.000000
42.750432 1025.000000
42.769914 1012.000000
42.789397 1057.000000
42.808879 1005.000000
42.828361 1083.000000
42.847844 1055.000000
42.867326 1045.000000
42.886809 1059.000000
42.906291 1084.000000
42.925773 1071.000000
42.945256 1089.000000
42.964738 1014.000000
42.984220 1107.000000
43.003703 1186.000000
43.023185 1294.000000
43.042667 1342.000000
43.062150 1505.000000
43.081632 1395.000000
43.101115 1268.000000
43.120597 1229.000000
43.140079 1227.000000
43.159562 1280.000000
43.179044 1331.000000
43.198526 1284.000000
43.218009 1225.000000
43.237491 1127.000000
43.256974 1136.000000
43.276456 1149.000000
43.295938 1058.000000
43.315421 1075.000000
43.334903 1081.000000
43.354385 1061.000000
43.373868 1095.000000
43.393350 1053.000000
43.412833 997.000000
43.432315 1064.000000
43.451797 1097.000000
43.471280 1067.000000
43.490762 1117.000000
43.510244 1023.000000
43.529727 1100.000000
43.549209 1074.000000
43.568691 1030.000000
43.588174 1053.000000
43.607656 1004.000000
43.627139 1020.000000
43.646621 1063.000000
43.666103 1055.000000
43.685586 1019.000000
43.705068 1033.000000
43.724550 1019.000000
43.744033 1021.000000
43.763515 1039.000000
43.782998 1040.000000
43.802480 1061.000000
43.821962 1056.000000
43.841445 1020.000000
43.860927 1039.000000
43.880409 1003.000000
43.899892 1079.000000
43.919374 1078.000000
43.938856 1032.000000
43.958339 1006.000000
43.977821 1083.000000
43.997304 1115.000000
44.016786 1026.000000
44.036268 996.000000
44.055751 1061.000000
44.075233 1010.000000
44.094715 1058.000000
44.114198 1067.000000
44.133680 1104.000000
44.153163 1084.000000
44.172645 990.000000
44.192127 1070.000000
44.211610 1039.000000
44.231092 1014.000000
44.250574 1027.000000
44.270057 1077.000000
44.289539 1044.000000
44.309021 958.000000
44.328504 1047.000000
44.347986 1039.000000
44.367469 1073.000000
44.386951 1077.000000
44.406433 1046.000000
44.425916 1037.000000
44.445398 1042.000000
44.464880 1022.000000
44.484363 1064.000000
44.503845 1059.000000
44.523328 1028.000000
44.542810 965.000000
44.562292 1035.000000
44.581775 1033.000000
44.601257 1041.000000
44.620739 1014.000000
44.640222 1054.000000
44.659704 1119.000000
44.679186 1042.000000
44.698669 1060.000000
44.718151 1060.000000
44.737634 1049.000000
44.757116 1051.000000
44.776598 1044.000000
44.796081 1078.000000
44.815563 1015.000000
44.835045 1030.000000
44.854528 995.000000
44.874010 1058.000000
44.893493 1041.000000
44.912975 1054.000000
44.932457 1028.000000
44.951940 1001.000000
44.971422 1117.000000
44.990904 1050.000000
45.010387 1000.000000
45.029869 960.000000
45.049352 1044.000000
45.068834 1047.000000
45.088316 1049.000000
45.107799 1010.000000
45.127281 1050.000000
45.146763 1042.000000
45.166246 1036.000000
45.185728 1052.000000
45.205210 1082.000000
45.224693 1051.000000
45.244175 1061.000000
45.263658 1043.000000
45.283140 1084.000000
45.302622 1040.000000
45.322105 1064.000000
45.341587 1051.000000
45.361069 1018.000000
45.380552 1056.000000
45.400034 1056.000000
45.419517 1079.000000
45.438999 1016.000000
45.458481 1076.000000
45.477964 1021.000000
45.497446 1073.000000
45.516928 1072.000000
45.536411 1044.000000
45.555893 1067.000000
45.575375 998.000000
45.594858 1102.000000
45.614340 1004.000000
45.633823 1080.000000
45.653305 1030.000000
45.672787 1106.000000
45.692270 1069.000000
45.711752 1060.000000
45.731234 1084.000000
45.750717 1020.000000
45.770199 1047.000000
45.789682 1023.000000
45.809164 1001.000000
45.828646 1007.000000
45.848129 1055.000000
45.867611 978.000000
45.887093 1066.000000
45.906576 1041.000000
45.926058 1082.000000
45.945540 1034.000000
45.965023 1073.000000
45.984505 1025.000000
46.003988 1040.000000
46.023470 997.000000
46.042952 1039.000000
46.062435 1078.000000
46.081917 1043.000000
46.101399 1052.000000
46.120882 1040.000000
46.140364 1034.000000
46.159847 1042.000000
46.179329 1063.000000
46.198811 1018.000000
46.218294 1072.000000
46.237776 1002.000000
46.257258 973.000000
46.276741 1063.000000
46.296223 1069.000000
46.315705 1037.000000
46.335188 988.000000
46.354670 1042.000000
46.374153 1040.000000
46.393635 1003.000000
46.413117 1040.000000
46.432600 1138.000000
46.452082 1157.000000
46.471564 1082.000000
46.491047 1123.000000
46.510529 1086.000000
46.530012 1135.000000
46.549494 1026.000000
46.568976 1073.000000
46.588459 1059.000000
46.607941 1020.000000
46.627423 1090.000000
46.646906 1014.000000
46.666388 1036.000000
46.685871 1042.000000
46.705353 1042.000000
46.724835 1020.000000
46.744318 1089.000000
46.763800 1088.000000
46.783282 1111.000000
46.802765 1077.000000
46.822247 1023.000000
46.841729 1091.000000
46.861212 1099.000000
46.880694 1045.000000
46.900177 1086.000000
46.919659 1063.000000
46.939141 980.000000
46.958624 1027.000000
46.978106 1127.000000
46.997588 1018.000000
47.017071 1063.000000
47.036553 1074.000000
47.056036 1063.000000
47.075518 1001.000000
47.095000 1088.000000
47.114483 1070.000000
47.133965 1121.000000
47.153447 1120.000000
47.172930 1009.000000
47.192412 1070.000000
47.211894 1098.000000
47.231377 1037.000000
47.250859 1093.000000
47.270342 1122.000000
47.289824 1094.000000
47.309306 1002.000000
47.328789 1102.000000
47.348271 1055.000000
47.367753 1060.000000
47.387236 1062.000000
47.406718 1107.000000
47.426201 1064.000000
47.445683 1044.000000
47.465165 1106.000000
47.484648 1090.000000
47.504130 1112.000000
47.523612 1072.000000
47.543095 1146.000000
47.562577 1201.000000
47.582059 1150.000000
47.601542 1140.000000
47.621024 1096.000000
47.640507 1082.000000
47.659989 1161.000000
47.679471 1082.000000
47.698954 1049.000000
47.718436 1084.000000
47.737918 1079.000000
47.757401 1078.000000
47.776883 1091.000000
47.796366 1052.000000
47.815848 1069.000000
47.835330 1020.000000
47.854813 1039.000000
47.874295 1026.000000
47.893777 1040.000000
47.913260 1051.000000
47.932742 1076.000000
47.952224 1066.000000
47.971707 1037.000000
47.991189 1074.000000
48.010672 1058.000000
48.030154 1035.000000
48.049636 1147.000000
48.069119 1081.000000
48.088601 1012.000000
48.108083 1092.000000
48.127566 1024.000000
48.147048 1112.000000
48.166531 1028.000000
48.186013 1096.000000
48.205495 1070.000000
48.224978 1068.000000
48.244460 1060.000000
48.263942 1112.000000
48.283425 1087.000000
48.302907 1044.000000
48.322389 1133.000000
48.341872 1049.000000
48.361354 1048.000000
48.380837 1101.000000
48.400319 1029.000000
48.419801 1130.000000
48.439284 1070.000000
48.458766 1096.000000
48.478248 1124.000000
48.497731 1203.000000
48.517213 1281.000000
48.536696 1291.000000
48.556178 1231.000000
48.575660 1227.000000
48.595143 1193.000000
48.614625 1210.000000
48.634107 1211.000000
48.653590 1308.000000
48.673072 1117.000000
48.692555 1224.000000
48.712037 1170.000000
48.731519 1131.000000
48.751002 1133.000000
48.770484 1147.000000
48.789966 1141.000000
48.809449 1072.000000
48.828931 1137.000000
48.848413 1126.000000
48.867896 1048.000000
48.887378 1049.000000
48.906861 1073.000000
48.926343 1045.000000
48.945825 1084.000000
48.965308 1009.000000
48.984790 1074.000000
49.004272 1035.000000
49.023755 1104.000000
49.043237 1037.000000
49.062720 1093.000000
49.082202 1129.000000
49.101684 1012.000000
49.121167 1058.000000
49.140649 1070.000000
49.160131 1015.000000
49.179614 1030.000000
49.199096 1043.000000
49.218578 1078.000000
49.238061 1117.000000
49.257543 1070.000000
49.277026 1013.000000
49.296508 1061.000000
49.315990 1047.000000
49.335473 1042.000000
49.354955 1099.000000
49.374437 1062.000000
49.393920 1011.000000
49.413402 1102.000000
49.432885 1052.000000
49.452367 1018.000000
49.471849 1082.000000
49.491332 1018.000000
49.510814 1142.000000
49.530296 1063.000000
49.549779 1115.000000
49.569261 1071.000000
49.588743 1036.000000
49.608226 1040.000000
49.627708 1103.000000
49.647191 1070.000000
49.666673 1110.000000
49.686155 1063.000000
49.705638 1013.000000
49.725120 1139.000000
49.744602 1039.000000
49.764085 1086.000000
49.783567 1119.000000
49.803050 1096.000000
49.822532 1034.000000
49.842014 1049.000000
49.861497 1062.000000
49.880979 1080.000000
49.900461 1059.000000
49.919944 1070.000000
49.939426 1095.000000
49.958908 1015.000000
49.978391 1043.000000
49.997873 1054.000000
50.017356 1062.000000
50.036838 1063.000000
50.056320 1037.000000
50.075803 1005.000000
50.095285 1129.000000
50.114767 1111.000000
50.134250 1037.000000
50.153732 1045.000000
50.173215 1031.000000
50.192697 1115.000000
50.212179 1089.000000
50.231662 1093.000000
50.251144 1138.000000
50.270626 1041.000000
50.290109 1100.000000
50.309591 989.000000
50.329074 1096.000000
50.348556 1010.000000
50.368038 1077.000000
50.387521 1090.000000
50.407003 1054.000000
50.426485 1077.000000
50.445968 1048.000000
50.465450 1045.000000
50.484932 1020.000000
50.504415 1059.000000
50.523897 1015.000000
50.543380 1098.000000
50.562862 1031.000000
50.582344 1121.000000
50.601827 1066.000000
50.621309 1152.000000
50.640791 1117.000000
50.660274 1085.000000
50.679756 1038.000000
50.699239 1036.000000
50.718721 1076.000000
50.738203 1058.000000
50.757686 1034.000000
50.777168 1042.000000
50.796650 1089.000000
50.816133 1119.000000
50.835615 1062.000000
50.855097 1101.000000
50.874580 1109.000000
50.894062 1030.000000
50.913545 1008.000000
50.933027 1058.000000
50.952509 1043.000000
50.971992 1062.000000
50.991474 1072.000000
51.010956 970.000000
51.030439 1056.000000
51.049921 1074.000000
51.069404 1097.000000
51.088886 1072.000000
51.108368 1057.000000
51.127851 1179.000000
51.147333 1092.000000
51.166815 1016.000000
51.186298 1070.000000
51.205780 1041.000000
51.225262 1021.000000
51.244745 1032.000000
51.264227 1054.000000
51.283710 1038.000000
51.303192 1080.000000
51.322674 1011.000000
51.342157 1071.000000
51.361639 1071.000000
51.381121 1039.000000
51.400604 1028.000000
51.420086 1084.000000
51.439569 1082.000000
51.459051 1063.000000
51.478533 1046.000000
51.498016 1064.000000
51.517498 1010.000000
51.536980 1150.000000
51.556463 1056.000000
51.575945 1087.000000
51.595427 1109.000000
51.614910 1087.000000
51.634392 1092.000000
51.653875 1052.000000
51.673357 1072.000000
51.692839 1036.000000
51.712322 1031.000000
51.731804 1081.000000
51.751286 1042.000000
51.770769 1087.000000
51.790251 1122.000000
51.809734 1081.000000
51.829216 1013.000000
51.848698 1015.000000
51.868181 1059.000000
51.887663 1058.000000
51.907145 1088.000000
51.926628 1022.000000
51.946110 1111.000000
51.965593 1075.000000
51.985075 1107.000000
52.004557 1114.000000
52.024040 1092.000000
52.043522 1049.000000
52.063004 1053.000000
52.082487 1031.000000
52.101969 1076.000000
52.121451 1057.000000
52.140934 1047.000000
52.160416 1046.000000
52.179899 1052.000000
52.199381 1058.000000
52.218863 1074.000000
52.238346 1048.000000
52.257828 1086.000000
52.277310 1057.000000
52.296793 1085.000000
52.316275 1035.000000
52.335758 1091.000000
52.355240 1033.000000
52.374722 1138.000000
52.394205 1091.000000
52.413687 1070.000000
52.433169 1158.000000
52.452652 1003.000000
52.472134 1014.000000
52.491616 1050.000000
52.511099 1083.000000
52.530581 1044.000000
52.550064 1093.000000
52.569546 1020.000000
52.589028 1121.000000
52.608511 1027.000000
52.627993 1070.000000
52.647475 1109.000000
52.666958 1059.000000
52.686440 1044.000000
52.705923 1095.000000
52.725405 1128.000000
52.744887 1091.000000
52.764370 1047.000000
52.783852 1073.000000
52.803334 988.000000
52.822817 1054.000000
52.842299 1063.000000
52.861781 1063.000000
52.881264 1087.000000
52.900746 999.000000
52.920229 1085.000000
52.939711 1092.000000
52.959193 1102.000000
52.978676 1064.000000
52.998158 1024.000000
53.017640 1064.000000
53.037123 1096.000000
53.056605 1071.000000
53.076088 1085.000000
53.095570 1055.000000
53.115052 1059.000000
53.134535 1117.000000
53.154017 1123.000000
53.173499 1093.000000
53.192982 1102.000000
53.212464 1027.000000
53.231946 1080.000000
53.251429 1038.000000
53.270911 1109.000000
53.290394 1051.000000
53.309876 1118.000000
53.329358 1119.000000
53.348841 1075.000000
53.368323 1184.000000
53.387805 1236.000000
53.407288 1258.000000
53.426770 1441.000000
53.446253 1295.000000
53.465735 1166.000000
53.485217 1130.000000
53.504700 1124.000000
53.524182 1195.000000
53.543664 1163.000000
53.563147 1273.000000
53.582629 1212.000000
53.602112 1149.000000
53.621594 1112.000000
53.641076 1111.000000
53.660559 1027.000000
53.680041 1021.000000
53.699523 1060.000000
53.719006 1031.000000
53.738488 1141.000000
53.757970 1102.000000
53.777453 1107.000000
53.796935 1104.000000
53.816418 1095.000000
53.835900 1083.000000
53.855382 1079.000000
53.874865 1068.000000
53.894347 1128.000000
53.913829 1089.000000
53.933312 1077.000000
53.952794 1089.000000
53.972277 1061.000000
53.991759 1070.000000
54.011241 1119.000000
54.030724 1046.000000
54.050206 1057.000000
54.069688 1076.000000
54.089171 1092.000000
54.108653 1169.000000
54.128135 1131.000000
54.147618 1130.000000
54.167100 1079.000000
54.186583 1042.000000
54.206065 1047.000000
54.225547 1051.000000
54.245030 1090.000000
54.264512 1153.000000
54.283994 1037.000000
54.303477 1056.000000
54.322959 1058.000000
54.342442 1095.000000
54.361924 1048.000000
54.381406 1097.000000
54.400889 1117.000000
54.420371 1089.000000
54.439853 1034.000000
54.459336 1096.000000
54.478818 1092.000000
54.498300 1079.000000
54.517783 1103.000000
54.537265 1053.000000
54.556748 1077.000000
54.576230 1051.000000
54.595712 1045.000000
54.615195 1091.000000
54.634677 1082.000000
54.654159 1056.000000
54.673642 1071.000000
54.693124 1101.000000
54.712607 1055.000000
54.732089 1066.000000
54.751571 1092.000000
54.771054 1138.000000
54.790536 1131.000000
54.810018 1077.000000
54.829501 1046.000000
54.848983 1133.000000
54.868465 1103.000000
54.887948 1141.000000
54.907430 1064.000000
54.926913 1066.000000
54.946395 1160.000000
54.965877 1162.000000
54.985360 1070.000000
55.004842 1108.000000
55.024324 1131.000000
55.043807 1084.000000
55.063289 1068.000000
55.082772 1086.000000
55.102254 1119.000000
55.121736 1089.000000
55.141219 1118.000000
55.160701 1063.000000
55.180183 1069.000000
55.199666 1096.000000
55.219148 1046.000000
55.238630 1070.000000
55.258113 1114.000000
55.277595 1094.000000
55.297078 1139.000000
55.316560 1045.000000
55.336042 1086.000000
55.355525 1083.000000
55.375007 1099.000000
55.394489 1015.000000
55.413972 1068.000000
55.433454 1139.000000
55.452937 1132.000000
55.472419 1091.000000
55.491901 1096.000000
55.511384 1088.000000
55.530866 1056.000000
55.550348 1161.000000
55.569831 1080.000000
55.589313 1075.000000
55.608796 1158.000000
55.628278 1036.000000
55.647760 1121.000000
55.667243 1046.000000
55.686725 1118.000000
55.706207 1065.000000
55.725690 1058.000000
55.745172 1092.000000
55.764654 1047.000000
55.784137 1077.000000
55.803619 1095.000000
55.823102 1060.000000
55.842584 1079.000000
55.862066 1075.000000
55.881549 1054.000000
55.901031 1028.000000
55.920513 1087.000000
55.939996 1079.000000
55.959478 1079.000000
55.978961 1098.000000
55.998443 1080.000000
56.017925 1089.000000
56.037408 1146.000000
56.056890 1065.000000
56.076372 1085.000000
56.095855 1108.000000
56.115337 1010.000000
56.134819 1143.000000
56.154302 1089.000000
56.173784 1130.000000
56.193267 1095.000000
56.212749 1134.000000
56.232231 1093.000000
56.251714 1143.000000
56.271196 1065.000000
56.290678 1044.000000
56.310161 1085.000000
56.329643 1052.000000
56.349126 1096.000000
56.368608 1081.000000
56.388090 1089.000000
56.407573 1047.000000
56.427055 1066.000000
56.446537 1168.000000
56.466020 1041.000000
56.485502 1121.000000
56.504984 1122.000000
56.524467 1078.000000
56.543949 1069.000000
56.563432 1038.000000
56.582914 1087.000000
56.602396 1168.000000
56.621879 1127.000000
56.641361 1096.000000
56.660843 1134.000000
56.680326 1145.000000
56.699808 1084.000000
56.719291 1106.000000
56.738773 1093.000000
56.758255 1160.000000
56.777738 1127.000000
56.797220 1057.000000
56.816702 1160.000000
56.836185 1132.000000
56.855667 1211.000000
56.875149 1313.000000
56.894632 1345.000000
56.914114 1566.000000
56.933597 1753.000000
56.953079 1778.000000
56.972561 1610.000000
56.992044 1381.000000
57.011526 1319.000000
57.031008 1267.000000
57.050491 1283.000000
57.069973 1267.000000
57.089456 1428.000000
57.108938 1408.000000
57.128420 1398.000000
57.147903 1330.000000
57.167385 1266.000000
57.186867 1226.000000
57.206350 1244.000000
57.225832 1154.000000
57.245315 1120.000000
57.264797 1122.000000
57.284279 1130.000000
57.303762 1136.000000
57.323244 1161.000000
57.342726 1172.000000
57.362209 1137.000000
57.381691 1152.000000
57.401173 1132.000000
57.420656 1141.000000
57.440138 1185.000000
57.459621 1156.000000
57.479103 1105.000000
57.498585 1185.000000
57.518068 1112.000000
57.537550 1175.000000
57.557032 1150.000000
57.576515 1125.000000
57.595997 1183.000000
57.615480 1140.000000
57.634962 1152.000000
57.654444 1071.000000
57.673927 1095.000000
57.693409 1100.000000
57.712891 1058.000000
57.732374 1146.000000
57.751856 1102.000000
57.771338 1078.000000
57.790821 1087.000000
57.810303 1122.000000
57.829786 1088.000000
57.849268 1077.000000
57.868750 1131.000000
57.888233 1089.000000
57.907715 1127.000000
57.927197 1083.000000
57.946680 1060.000000
57.966162 1091.000000
57.985645 1182.000000
58.005127 1074.000000
58.024609 1128.000000
58.044092 1073.000000
58.063574 1126.000000
58.083056 1131.000000
58.102539 1105.000000
58.122021 1107.000000
58.141503 1100.000000
58.160986 1122.000000
58.180468 1098.000000
58.199951 1113.000000
58.219433 1129.000000
58.238915 1167.000000
58.258398 1109.000000
58.277880 1105.000000
58.297362 1176.000000
58.316845 1059.000000
58.336327 1081.000000
58.355810 1100.000000
58.375292 1083.000000
58.394774 1109.000000
58.414257 1149.000000
58.433739 1159.000000
58.453221 1152.000000
58.472704 1146.000000
58.492186 1107.000000
58.511668 1104.000000
58.531151 1093.000000
58.550633 1073.000000
58.570116 1119.000000
58.589598 1092.000000
58.609080 1099.000000
58.628563 1068.000000
58.648045 1075.000000
58.667527 1083.000000
58.687010 1128.000000
58.706492 1123.000000
58.725975 1094.000000
58.745457 1076.000000
58.764939 1097.000000
58.784422 1088.000000
58.803904 1024.000000
58.823386 1135.000000
58.842869 1098.000000
58.862351 1064.000000
58.881834 1109.000000
58.901316 1154.000000
58.920798 1090.000000
58.940281 1082.000000
58.959763 1133.000000
58.979245 1078.000000
58.998728 1061.000000
59.018210 1046.000000
59.037692 1106.000000
59.057175 1098.000000
59.076657 1063.000000
59.096140 1131.000000
59.115622 1072.000000
59.135104 1113.000000
59.154587 1063.000000
59.174069 1041.000000
59.193551 1115.000000
59.213034 1136.000000
59.232516 1063.000000
59.251999 1117.000000
59.271481 1133.000000
59.290963 1092.000000
59.310446 1074.000000
59.329928 1043.000000
59.349410 1050.000000
59.368893 1083.000000
59.388375 1103.000000
59.407857 1094.000000
59.427340 1095.000000
59.446822 1078.000000
59.466305 1091.000000
59.485787 1129.000000
59.505269 1084.000000
59.524752 1069.000000
59.544234 1139.000000
59.563716 1045.000000
59.583199 1079.000000
59.602681 1117.000000
59.622164 1146.000000
59.641646 1093.000000
59.661128 1116.000000
59.680611 1101.000000
59.700093 1075.000000
59.719575 1116.000000
59.739058 1009.000000
59.758540 1078.000000
59.778022 1112.000000
59.797505 1075.000000
59.816987 1093.000000
59.836470 1098.000000
59.855952 1089.000000
59.875434 1112.000000
59.894917 1106.000000
59.914399 1098.000000
59.933881 1105.000000
59.953364 1099.000000
59.972846 1129.000000
59.992329 1083.000000
60.011811 1080.000000
60.031293 1112.000000
60.050776 1145.000000
60.070258 1083.000000
60.089740 1097.000000
60.109223 1086.000000
60.128705 1115.000000
60.148187 1092.000000
60.167670 1136.000000
60.187152 1091.000000
60.206635 1131.000000
60.226117 1132.000000
60.245599 1086.000000
60.265082 1084.000000
60.284564 1144.000000
60.304046 1127.000000
60.323529 1142.000000
60.343011 1132.000000
60.362494 1108.000000
60.381976 1070.000000
60.401458 1125.000000
60.420941 1101.000000
60.440423 1126.000000
60.459905 1138.000000
60.479388 1181.000000
60.498870 1133.000000
60.518352 1128.000000
60.537835 1105.000000
60.557317 1182.000000
60.576800 1143.000000
60.596282 1123.000000
60.615764 1120.000000
60.635247 1134.000000
60.654729 1134.000000
60.674211 1102.000000
60.693694 1176.000000
60.713176 1171.000000
60.732659 1182.000000
60.752141 1184.000000
60.771623 1081.000000
60.791106 1134.000000
60.810588 1078.000000
60.830070 1111.000000
60.849553 1116.000000
60.869035 1103.000000
60.888518 1094.000000
60.908000 1125.000000
60.927482 1187.000000
60.946965 1157.000000
60.966447 1177.000000
60.985929 1142.000000
61.005412 1087.000000
61.024894 1112.000000
61.044376 1124.000000
61.063859 1077.000000
61.083341 1102.000000
61.102824 1126.000000
61.122306 1136.000000
61.141788 1133.000000
61.161271 1166.000000
61.180753 1114.000000
61.200235 1040.000000
61.219718 1070.000000
61.239200 1107.000000
61.258683 1087.000000
61.278165 1080.000000
61.297647 1146.000000
61.317130 1039.000000
61.336612 1121.000000
61.356094 1078.000000
61.375577 1152.000000
61.395059 1123.000000
61.414541 1146.000000
61.434024 1094.000000
61.453506 1093.000000
61.472989 1114.000000
61.492471 1104.000000
61.511953 1089.000000
61.531436 1149.000000
61.550918 1134.000000
61.570400 1072.000000
61.589883 1105.000000
61.609365 1125.000000
61.628848 1204.000000
61.648330 1134.000000
61.667812 1164.000000
61.687295 1128.000000
61.706777 1114.000000
61.726259 1135.000000
61.745742 1128.000000
61.765224 1091.000000
61.784706 1115.000000
61.804189 1100.000000
61.823671 1100.000000
61.843154 1072.000000
61.862636 1116.000000
61.882118 1062.000000
61.901601 1085.000000
61.921083 1150.000000
61.940565 1146.000000
61.960048 1104.000000
61.979530 1118.000000
61.999013 1121.000000
62.018495 1123.000000
62.037977 1107.000000
62.057460 1150.000000
62.076942 1081.000000
62.096424 1110.000000
62.115907 1112.000000
62.135389 1023.000000
62.154871 1090.000000
62.174354 1126.000000
62.193836 1105.000000
62.213319 1049.000000
62.232801 1054.000000
62.252283 1143.000000
62.271766 1111.000000
62.291248 1176.000000
62.310730 1142.000000
62.330213 1126.000000
62.349695 1162.000000
62.369178 1135.000000
62.388660 1171.000000
62.408142 1201.000000
62.427625 1205.000000
62.447107 1340.000000
62.466589 1346.000000
62.486072 1411.000000
62.505554 1562.000000
62.525037 1671.000000
62.544519 1634.000000
62.564001 1521.000000
62.583484 1421.000000
62.602966 1391.000000
62.622448 1313.000000
62.641931 1334.000000
62.661413 1352.000000
62.680895 1440.000000
62.700378 1460.000000
62.719860 1397.000000
62.739343 1310.000000
62.758825 1242.000000
62.778307 1254.000000
62.797790 1188.000000
62.817272 1191.000000
62.836754 1173.000000
62.856237 1138.000000
62.875719 1096.000000
62.895202 1179.000000
62.914684 1154.000000
62.934166 1145.000000
62.953649 1129.000000
62.973131 1140.000000
62.992613 1091.000000
63.012096 1128.000000
63.031578 1105.000000
63.051060 1182.000000
63.070543 1080.000000
63.090025 1184.000000
63.109508 1087.000000
63.128990 1093.000000
63.148472 1114.000000
63.167955 1110.000000
63.187437 1105.000000
63.206919 1114.000000
63.226402 1097.000000
63.245884 1103.000000
63.265367 1081.000000
63.284849 1133.000000
63.304331 1125.000000
63.323814 1074.000000
63.343296 1094.000000
63.362778 1160.000000
63.382261 1118.000000
63.401743 1127.000000
63.421225 1059.000000
63.440708 1099.000000
63.460190 1159.000000
63.479673 1053.000000
63.499155 1122.000000
63.518637 1116.000000
63.538120 1069.000000
63.557602 1049.000000
63.577084 1083.000000
63.596567 1112.000000
63.616049 1042.000000
63.635532 1100.000000
63.655014 1027.000000
63.674496 1145.000000
63.693979 1124.000000
63.713461 1108.000000
63.732943 1108.000000
63.752426 1097.000000
63.771908 1073.000000
63.791390 1124.000000
63.810873 1095.000000
63.830355 1038.000000
63.849838 1166.000000
63.869320 1088.000000
63.888802 1110.000000
63.908285 1076.000000
63.927767 1090.000000
63.947249 1125.000000
63.966732 1113.000000
63.986214 1149.000000
64.005697 1104.000000
64.025179 1144.000000
64.044661 1108.000000
64.064144 1110.000000
64.083626 1117.000000
64.103108 1071.000000
64.122591 1105.000000
64.142073 1125.000000
64.161556 1127.000000
64.181038 1093.000000
64.200520 1075.000000
64.220003 1140.000000
64.239485 1081.000000
64.258967 1191.000000
64.278450 1059.000000
64.297932 1101.000000
64.317414 1155.000000
64.336897 1128.000000
64.356379 1157.000000
64.375862 1050.000000
64.395344 1100.000000
64.414826 1116.000000
64.434309 1133.000000
64.453791 1144.000000
64.473273 1075.000000
64.492756 1122.000000
64.512238 1174.000000
64.531721 1143.000000
64.551203 1128.000000
64.570685 1136.000000
64.590168 1104.000000
64.609650 1137.000000
64.629132 1135.000000
64.648615 1099.000000
64.668097 1118.000000
64.687579 1181.000000
64.707062 1074.000000
64.726544 1142.000000
64.746027 1126.000000
64.765509 1135.000000
64.784991 1132.000000
64.804474 1120.000000
64.823956 1138.000000
64.843438 1175.000000
64.862921 1112.000000
64.882403 1120.000000
64.901886 1120.000000
64.921368 1107.000000
64.940850 1087.000000
64.960333 1154.000000
64.979815 1076.000000
64.999297 1126.000000
65.018780 1122.000000
65.038262 1173.000000
65.057744 1138.000000
65.077227 1086.000000
65.096709 1117.000000
65.116192 1104.000000
65.135674 1127.000000
65.155156 1117.000000
65.174639 1117.000000
65.194121 1117.000000
65.213603 1105.000000
65.233086 1074.000000
65.252568 1115.000000
65.272051 1115.000000
65.291533 1151.000000
65.311015 1118.000000
65.330498 1155.000000
65.349980 1102.000000
65.369462 1148.000000
65.388945 1128.000000
65.408427 1098.000000
65.427909 1111.000000
65.447392 1127.000000
65.466874 1163.000000
65.486357 1084.000000
65.505839 1102.000000
65.525321 1126.000000
65.544804 1154.000000
65.564286 1098.000000
65.583768 1187.000000
65.603251 1134.000000
65.622733 1144.000000
65.642216 1173.000000
65.661698 1235.000000
65.681180 1224.000000
65.700663 1257.000000
65.720145 1265.000000
65.739627 1254.000000
65.759110 1245.000000
65.778592 1305.000000
65.798075 1259.000000
65.817557 1211.000000
65.837039 1243.000000
65.856522 1239.000000
65.876004 1227.000000
65.895486 1253.000000
65.914969 1238.000000
65.934451 1232.000000
65.953933 1186.000000
65.973416 1182.000000
65.992898 1155.000000
66.012381 1192.000000
66.031863 1130.000000
66.051345 1159.000000
66.070828 1177.000000
66.090310 1116.000000
66.109792 1127.000000
66.129275 1164.000000
66.148757 1129.000000
66.168240 1143.000000
66.187722 1100.000000
66.207204 1103.000000
66.226687 1083.000000
66.246169 1086.000000
66.265651 1094.000000
66.285134 1209.000000
66.304616 1068.000000
66.324098 1093.000000
66.343581 1121.000000
66.363063 1067.000000
66.382546 1105.000000
66.402028 1075.000000
66.421510 1094.000000
66.440993 1181.000000
66.460475 1160.000000
66.479957 1136.000000
66.499440 1063.000000
66.518922 1125.000000
66.538405 1091.000000
66.557887 1078.000000
66.577369 1180.000000
66.596852 1114.000000
66.616334 1126.000000
66.635816 1160.000000
66.655299 1111.000000
66.674781 1115.000000
66.694263 1025.000000
66.713746 1091.000000
66.733228 1096.000000
66.752711 1163.000000
66.772193 1142.000000
66.791675 1176.000000
66.811158 1104.000000
66.830640 1088.000000
66.850122 1107.000000
66.869605 1175.000000
66.889087 1138.000000
66.908570 1164.000000
66.928052 1061.000000
66.947534 1075.000000
66.967017 1162.000000
66.986499 1135.000000
67.005981 1112.000000
67.025464 1146.000000
67.044946 1129.000000
67.064428 1215.000000
67.083911 1147.000000
67.103393 1086.000000
67.122876 1087.000000
67.142358 1104.000000
67.161840 1195.000000
67.181323 1133.000000
67.200805 1163.000000
67.220287 1085.000000
67.239770 1083.000000
67.259252 1161.000000
67.278735 1157.000000
67.298217 1135.000000
67.317699 1148.000000
67.337182 1078.000000
67.356664 1070.000000
67.376146 1118.000000
67.395629 1122.000000
67.415111 1132.000000
67.434593 1117.000000
67.454076 1134.000000
67.473558 1135.000000
67.493041 1171.000000
67.512523 1198.000000
67.532005 1110.000000
67.551488 1062.000000
67.570970 1128.000000
67.590452 1134.000000
67.609935 1209.000000
67.629417 1107.000000
67.648900 1146.000000
67.668382 1127.000000
67.687864 1131.000000
67.707347 1130.000000
67.726829 1099.000000
67.746311 1129.000000
67.765794 1095.000000
67.785276 1121.000000
67.804759 1090.000000
67.824241 1125.000000
67.843723 1123.000000
67.863206 1148.000000
67.882688 1162.000000
67.902170 1089.000000
67.921653 1087.000000
67.941135 1132.000000
67.960617 1126.000000
67.980100 1147.000000
67.999582 1122.000000
68.019065 1106.000000
68.038547 1149.000000
68.058029 1142.000000
68.077512 1099.000000
68.096994 1092.000000
68.116476 1136.000000
68.135959 1160.000000
68.155441 1138.000000
68.174924 1078.000000
68.194406 1079.000000
68.213888 1132.000000
68.233371 1103.000000
68.252853 1129.000000
68.272335 1146.000000
68.291818 1108.000000
68.311300 1124.000000
68.330782 1152.000000
68.350265 1081.000000
68.369747 1101.000000
68.389230 1062.000000
68.408712 1167.000000
68.428194 1057.000000
68.447677 1114.000000
68.467159 1096.000000
68.486641 1172.000000
68.506124 1170.000000
68.525606 1165.000000
68.545089 1115.000000
68.564571 1172.000000
68.584053 1091.000000
68.603536 1130.000000
68.623018 1086.000000
68.642500 1108.000000
68.661983 1168.000000
68.681465 1156.000000
68.700947 1150.000000
68.720430 1131.000000
68.739912 1135.000000
68.759395 1129.000000
68.778877 1111.000000
68.798359 1170.000000
68.817842 1200.000000
68.837324 1167.000000
68.856806 1110.000000
68.876289 1105.000000
68.895771 1130.000000
68.915254 1074.000000
68.934736 1110.000000
68.954218 1171.000000
68.973701 1150.000000
68.993183 1091.000000
69.012665 1152.000000
69.032148 1092.000000
69.051630 1076.000000
69.071112 1131.000000
69.090595 1098.000000
69.110077 1106.000000
69.129560 1065.000000
69.149042 1148.000000
69.168524 1125.000000
69.188007 1157.000000
69.207489 1100.000000
69.226971 1081.000000
69.246454 1111.000000
69.265936 1106.000000
69.285419 1122.000000
69.304901 1146.000000
69.324383 1165.000000
69.343866 1168.000000
69.363348 1105.000000
69.382830 1132.000000
69.402313 1143.000000
69.421795 1137.000000
69.441278 1079.000000
69.460760 1114.000000
69.480242 1087.000000
69.499725 1121.000000
69.519207 1110.000000
69.538689 1087.000000
69.558172 1156.000000
69.577654 1059.000000
69.597136 1162.000000
69.616619 1097.000000
69.636101 1106.000000
69.655584 1131.000000
69.675066 1106.000000
69.694548 1151.000000
69.714031 1167.000000
69.733513 1197.000000
69.752995 1199.000000
69.772478 1182.000000
69.791960 1121.000000
69.811443 1144.000000
69.830925 1110.000000
69.850407 1176.000000
69.869890 1088.000000
69.889372 1195.000000
69.908854 1124.000000
69.928337 1137.000000
69.947819 1166.000000
69.967301 1181.000000
69.986784 1112.000000
70.006266 1102.000000
70.025749 1077.000000
