4.000000 1835.000000
4.019482 1876.000000
4.038965 1923.000000
4.058447 1840.000000
4.077929 1834.000000
4.097412 1686.000000
4.116894 1752.000000
4.136377 1776.000000
4.155859 1672.000000
4.175341 1705.000000
4.194824 1728.000000
4.214306 1767.000000
4.233788 1678.000000
4.253271 1668.000000
4.272753 1623.000000
4.292236 1651.000000
4.311718 1704.000000
4.331200 1605.000000
4.350683 1691.000000
4.370165 1631.000000
4.389647 1585.000000
4.409130 1581.000000
4.428612 1589.000000
4.448094 1565.000000
4.467577 1590.000000
4.487059 1546.000000
4.506542 1636.000000
4.526024 1575.000000
4.545506 1515.000000
4.564989 1528.000000
4.584471 1533.000000
4.603953 1510.000000
4.623436 1441.000000
4.642918 1516.000000
4.662401 1431.000000
4.681883 1505.000000
4.701365 1481.000000
4.720848 1477.000000
4.740330 1462.000000
4.759812 1468.000000
4.779295 1417.000000
4.798777 1447.000000
4.818259 1404.000000
4.837742 1459.000000
4.857224 1457.000000
4.876707 1426.000000
4.896189 1451.000000
4.915671 1396.000000
4.935154 1377.000000
4.954636 1372.000000
4.974118 1336.000000
4.993601 1424.000000
5.013083 1324.000000
5.032566 1388.000000
5.052048 1409.000000
5.071530 1444.000000
5.091013 1354.000000
5.110495 1369.000000
5.129977 1423.000000
5.149460 1459.000000
5.168942 1371.000000
5.188425 1442.000000
5.207907 1392.000000
5.227389 1370.000000
5.246872 1393.000000
5.266354 1374.000000
5.285836 1365.000000
5.305319 1358.000000
5.324801 1355.000000
5.344283 1406.000000
5.363766 1316.000000
5.383248 1385.000000
5.402731 1433.000000
5.422213 1428.000000
5.441695 1374.000000
5.461178 1388.000000
5.480660 1326.000000
5.500142 1348.000000
5.519625 1438.000000
5.539107 1408.000000
5.558590 1392.000000
5.578072 1376.000000
5.597554 1347.000000
5.617037 1375.000000
5.636519 1430.000000
5.656001 1448.000000
5.675484 1398.000000
5.694966 1486.000000
5.714448 1546.000000
5.733931 1569.000000
5.753413 1552.000000
5.772896 1636.000000
5.792378 1752.000000
5.811860 1757.000000
5.831343 1905.000000
5.850825 1981.000000
5.870307 1864.000000
5.889790 1793.000000
5.909272 1688.000000
5.928755 1605.000000
5.948237 1650.000000
5.967719 1560.000000
5.987202 1567.000000
6.006684 1474.000000
6.026166 1389.000000
6.045649 1485.000000
6.065131 1439.000000
6.084613 1399.000000
6.104096 1414.000000
6.123578 1443.000000
6.143061 1384.000000
6.162543 1392.000000
6.182025 1416.000000
6.201508 1416.000000
6.220990 1511.000000
6.240472 1347.000000
6.259955 1395.000000
6.279437 1381.000000
6.298920 1295.000000
6.318402 1305.000000
6.337884 1295.000000
6.357367 1276.000000
6.376849 1266.000000
6.396331 1318.000000
6.415814 1291.000000
6.435296 1316.000000
6.454778 1341.000000
6.474261 1295.000000
6.493743 1379.000000
6.513226 1259.000000
6.532708 1287.000000
6.552190 1289.000000
6.571673 1286.000000
6.591155 1213.000000
6.610637 1306.000000
6.630120 1176.000000
6.649602 1264.000000
6.669085 1329.000000
6.688567 1307.000000
6.708049 1321.000000
6.727532 1238.000000
6.747014 1261.000000
6.766496 1234.000000
6.785979 1376.000000
6.805461 1222.000000
6.824944 1274.000000
6.844426 1222.000000
6.863908 1276.000000
6.883391 1221.000000
6.902873 1246.000000
6.922355 1284.000000
6.941838 1261.000000
6.961320 1200.000000
6.980802 1262.000000
7.000285 1207.000000
7.019767 1269.000000
7.039250 1253.000000
7.058732 1278.000000
7.078214 1221.000000
7.097697 1221.000000
7.117179 1225.000000
7.136661 1184.000000
7.156144 1306.000000
7.175626 1206.000000
7.195109 1201.000000
7.214591 1332.000000
7.234073 1272.000000
7.253556 1263.000000
7.273038 1223.000000
7.292520 1179.000000
7.312003 1231.000000
7.331485 1205.000000
7.350967 1258.000000
7.370450 1231.000000
7.389932 1303.000000
7.409415 1237.000000
7.428897 1297.000000
7.448379 1212.000000
7.467862 1275.000000
7.487344 1253.000000
7.506826 1248.000000
7.526309 1241.000000
7.545791 1259.000000
7.565274 1259.000000
7.584756 1216.000000
7.604238 1205.000000
7.623721 1266.000000
7.643203 1222.000000
7.662685 1210.000000
7.682168 1254.000000
7.701650 1232.000000
7.721132 1205.000000
7.740615 1257.000000
7.760097 1204.000000
7.779580 1239.000000
7.799062 1216.000000
7.818544 1222.000000
7.838027 1157.000000
7.857509 1230.000000
7.876991 1289.000000
7.896474 1295.000000
7.915956 1177.000000
7.935439 1135.000000
7.954921 1181.000000
7.974403 1207.000000
7.993886 1224.000000
8.013368 1241.000000
8.032850 1184.000000
8.052333 1190.000000
8.071815 1225.000000
8.091297 1241.000000
8.110780 1237.000000
8.130262 1215.000000
8.149745 1202.000000
8.169227 1219.000000
8.188709 1229.000000
8.208192 1181.000000
8.227674 1200.000000
8.247156 1195.000000
8.266639 1142.000000
8.286121 1189.000000
8.305604 1188.000000
8.325086 1264.000000
8.344568 1242.000000
8.364051 1214.000000
8.383533 1198.000000
8.403015 1202.000000
8.422498 1219.000000
8.441980 1252.000000
8.461463 1160.000000
8.480945 1307.000000
8.500427 1153.000000
8.519910 1224.000000
8.539392 1206.000000
8.558874 1225.000000
8.578357 1199.000000
8.597839 1249.000000
8.617321 1252.000000
8.636804 1214.000000
8.656286 1178.000000
8.675769 1153.000000
8.695251 1203.000000
8.714733 1165.000000
8.734216 1153.000000
8.753698 1231.000000
8.773180 1197.000000
8.792663 1191.000000
8.812145 1214.000000
8.831628 1273.000000
8.851110 1202.000000
8.870592 1216.000000
8.890075 1253.000000
8.909557 1217.000000
8.929039 1236.000000
8.948522 1249.000000
8.968004 1208.000000
8.987486 1134.000000
9.006969 1252.000000
9.026451 1242.000000
9.045934 1212.000000
9.065416 1244.000000
9.084898 1193.000000
9.104381 1209.000000
9.123863 1232.000000
9.143345 1178.000000
9.162828 1287.000000
9.182310 1187.000000
9.201793 1188.000000
9.221275 1253.000000
9.240757 1197.000000
9.260240 1225.000000
9.279722 1234.000000
9.299204 1285.000000
9.318687 1219.000000
9.338169 1277.000000
9.357651 1361.000000
9.377134 1415.000000
9.396616 1469.000000
9.416099 1536.000000
9.435581 1622.000000
9.455063 1768.000000
9.474546 1629.000000
9.494028 1425.000000
9.513510 1341.000000
9.532993 1320.000000
9.552475 1213.000000
9.571958 1200.000000
9.591440 1279.000000
9.610922 1226.000000
9.630405 1193.000000
9.649887 1213.000000
9.669369 1189.000000
9.688852 1201.000000
9.708334 1156.000000
9.727816 1186.000000
9.747299 1267.000000
9.766781 1226.000000
9.786264 1231.000000
9.805746 1228.000000
9.825228 1196.000000
9.844711 1267.000000
9.864193 1206.000000
9.883675 1215.000000
9.903158 1248.000000
9.922640 1249.000000
9.942123 1192.000000
9.961605 1210.000000
9.981087 1199.000000
10.000570 1217.000000
10.020052 1153.000000
10.039534 1226.000000
10.059017 1247.000000
10.078499 1229.000000
10.097982 1243.000000
10.117464 1188.000000
10.136946 1175.000000
10.156429 1242.000000
10.175911 1175.000000
10.195393 1234.000000
10.214876 1213.000000
10.234358 1197.000000
10.253840 1206.000000
10.273323 1216.000000
10.292805 1223.000000
10.312288 1225.000000
10.331770 1248.000000
10.351252 1267.000000
10.370735 1230.000000
10.390217 1194.000000
10.409699 1264.000000
10.429182 1187.000000
10.448664 1249.000000
10.468147 1209.000000
10.487629 1213.000000
10.507111 1202.000000
10.526594 1141.000000
10.546076 1229.000000
10.565558 1141.000000
10.585041 1185.000000
10.604523 1236.000000
10.624005 1231.000000
10.643488 1194.000000
10.662970 1149.000000
10.682453 1136.000000
10.701935 1211.000000
10.721417 1203.000000
10.740900 1201.000000
10.760382 1233.000000
10.779864 1216.000000
10.799347 1229.000000
10.818829 1112.000000
10.838312 1220.000000
10.857794 1219.000000
10.877276 1192.000000
10.896759 1183.000000
10.916241 1179.000000
10.935723 1240.000000
10.955206 1171.000000
10.974688 1205.000000
10.994170 1202.000000
11.013653 1205.000000
11.033135 1211.000000
11.052618 1230.000000
11.072100 1178.000000
11.091582 1204.000000
11.111065 1194.000000
11.130547 1264.000000
11.150029 1234.000000
11.169512 1191.000000
11.188994 1229.000000
11.208477 1180.000000
11.227959 1184.000000
11.247441 1184.000000
11.266924 1179.000000
11.286406 1255.000000
11.305888 1284.000000
11.325371 1216.000000
11.344853 1263.000000
11.364335 1211.000000
11.383818 1211.000000
11.403300 1222.000000
11.422783 1211.000000
11.442265 1207.000000
11.461747 1185.000000
11.481230 1246.000000
11.500712 1247.000000
11.520194 1198.000000
11.539677 1190.000000
11.559159 1157.000000
11.578642 1184.000000
11.598124 1196.000000
11.617606 1187.000000
11.637089 1206.000000
11.656571 1198.000000
11.676053 1180.000000
11.695536 1243.000000
11.715018 1192.000000
11.734500 1206.000000
11.753983 1168.000000
11.773465 1208.000000
11.792948 1211.000000
11.812430 1155.000000
11.831912 1191.000000
11.851395 1221.000000
11.870877 1167.000000
11.890359 1228.000000
11.909842 1206.000000
11.929324 1159.000000
11.948807 1261.000000
11.968289 1196.000000
11.987771 1201.000000
12.007254 1200.000000
12.026736 1181.000000
12.046218 1184.000000
12.065701 1267.000000
12.085183 1204.000000
12.104666 1231.000000
12.124148 1160.000000
12.143630 1231.000000
12.163113 1255.000000
12.182595 1149.000000
12.202077 1194.000000
12.221560 1225.000000
12.241042 1255.000000
12.260524 1249.000000
12.280007 1213.000000
12.299489 1241.000000
12.318972 1224.000000
12.338454 1218.000000
12.357936 1290.000000
12.377419 1261.000000
12.396901 1277.000000
12.416383 1319.000000
12.435866 1414.000000
12.455348 1491.000000
12.474831 1437.000000
12.494313 1355.000000
12.513795 1329.000000
12.533278 1265.000000
12.552760 1247.000000
12.572242 1203.000000
12.591725 1178.000000
12.611207 1248.000000
12.630689 1162.000000
12.650172 1202.000000
12.669654 1280.000000
12.689137 1212.000000
12.708619 1205.000000
12.728101 1212.000000
12.747584 1209.000000
12.767066 1205.000000
12.786548 1272.000000
12.806031 1178.000000
12.825513 1174.000000
12.844996 1208.000000
12.864478 1288.000000
12.883960 1235.000000
12.903443 1197.000000
12.922925 1159.000000
12.942407 1201.000000
12.961890 1159.000000
12.981372 1219.000000
13.000854 1211.000000
13.020337 1160.000000
13.039819 1195.000000
13.059302 1189.000000
13.078784 1194.000000
13.098266 1215.000000
13.117749 1166.000000
13.137231 1225.000000
13.156713 1162.000000
13.176196 1215.000000
13.195678 1179.000000
13.215161 1205.000000
13.234643 1206.000000
13.254125 1154.000000
13.273608 1222.000000
13.293090 1217.000000
13.312572 1206.000000
13.332055 1212.000000
13.351537 1149.000000
13.371019 1169.000000
13.390502 1169.000000
13.409984 1272.000000
13.429467 1156.000000
13.448949 1172.000000
13.468431 1248.000000
13.487914 1177.000000
13.507396 1199.000000
13.526878 1177.000000
13.546361 1215.000000
13.565843 1197.000000
13.585326 1194.000000
13.604808 1167.000000
13.624290 1208.000000
13.643773 1215.000000
13.663255 1203.000000
13.682737 1273.000000
13.702220 1208.000000
13.721702 1219.000000
13.741185 1181.000000
13.760667 1257.000000
13.780149 1196.000000
13.799632 1249.000000
13.819114 1213.000000
13.838596 1169.000000
13.858079 1188.000000
13.877561 1243.000000
13.897043 1229.000000
13.916526 1205.000000
13.936008 1182.000000
13.955491 1167.000000
13.974973 1226.000000
13.994455 1269.000000
14.013938 1211.000000
14.033420 1164.000000
14.052902 1202.000000
14.072385 1191.000000
14.091867 1200.000000
14.111350 1173.000000
14.130832 1140.000000
14.150314 1126.000000
14.169797 1254.000000
14.189279 1154.000000
14.208761 1189.000000
14.228244 1173.000000
14.247726 1197.000000
14.267208 1217.000000
14.286691 1182.000000
14.306173 1163.000000
14.325656 1255.000000
14.345138 1211.000000
14.364620 1232.000000
14.384103 1240.000000
14.403585 1193.000000
14.423067 1270.000000
14.442550 1189.000000
14.462032 1214.000000
14.481515 1249.000000
14.500997 1182.000000
14.520479 1222.000000
14.539962 1247.000000
14.559444 1233.000000
14.578926 1226.000000
14.598409 1213.000000
14.617891 1204.000000
14.637373 1165.000000
14.656856 1207.000000
14.676338 1233.000000
14.695821 1205.000000
14.715303 1197.000000
14.734785 1233.000000
14.754268 1201.000000
14.773750 1211.000000
14.793232 1215.000000
14.812715 1202.000000
14.832197 1162.000000
14.851680 1147.000000
14.871162 1225.000000
14.890644 1161.000000
14.910127 1236.000000
14.929609 1184.000000
14.949091 1147.000000
14.968574 1120.000000
14.988056 1230.000000
15.007538 1192.000000
15.027021 1155.000000
15.046503 1155.000000
15.065986 1150.000000
15.085468 1197.000000
15.104950 1204.000000
15.124433 1134.000000
15.143915 1230.000000
15.163397 1206.000000
15.182880 1160.000000
15.202362 1175.000000
15.221845 1167.000000
15.241327 1207.000000
15.260809 1239.000000
15.280292 1180.000000
15.299774 1190.000000
15.319256 1202.000000
15.338739 1214.000000
15.358221 1286.000000
15.377704 1222.000000
15.397186 1226.000000
15.416668 1241.000000
15.436151 1158.000000
15.455633 1170.000000
15.475115 1208.000000
15.494598 1121.000000
15.514080 1200.000000
15.533562 1214.000000
15.553045 1169.000000
15.572527 1233.000000
15.592010 1216.000000
15.611492 1179.000000
15.630974 1227.000000
15.650457 1160.000000
15.669939 1150.000000
15.689421 1254.000000
15.708904 1169.000000
15.728386 1243.000000
15.747869 1149.000000
15.767351 1179.000000
15.786833 1215.000000
15.806316 1139.000000
15.825798 1164.000000
15.845280 1176.000000
15.864763 1230.000000
15.884245 1173.000000
15.903727 1194.000000
15.923210 1235.000000
15.942692 1202.000000
15.962175 1104.000000
15.981657 1173.000000
16.001139 1225.000000
16.020622 1174.000000
16.040104 1161.000000
16.059586 1138.000000
16.079069 1171.000000
16.098551 1160.000000
16.118034 1143.000000
16.137516 1100.000000
16.156998 1216.000000
16.176481 1250.000000
16.195963 1211.000000
16.215445 1121.000000
16.234928 1184.000000
16.254410 1145.000000
16.273892 1194.000000
16.293375 1192.000000
16.312857 1187.000000
16.332340 1183.000000
16.351822 1242.000000
16.371304 1170.000000
16.390787 1152.000000
16.410269 1209.000000
16.429751 1213.000000
16.449234 1181.000000
16.468716 1194.000000
16.488199 1159.000000
16.507681 1209.000000
16.527163 1177.000000
16.546646 1151.000000
16.566128 1137.000000
16.585610 1242.000000
16.605093 1241.000000
16.624575 1235.000000
16.644057 1139.000000
16.663540 1187.000000
16.683022 1168.000000
16.702505 1205.000000
16.721987 1222.000000
16.741469 1114.000000
16.760952 1235.000000
16.780434 1230.000000
16.799916 1191.000000
16.819399 1161.000000
16.838881 1157.000000
16.858364 1125.000000
16.877846 1159.000000
16.897328 1164.000000
16.916811 1132.000000
16.936293 1218.000000
16.955775 1167.000000
16.975258 1192.000000
16.994740 1188.000000
17.014222 1151.000000
17.033705 1217.000000
17.053187 1176.000000
17.072670 1143.000000
17.092152 1118.000000
17.111634 1218.000000
17.131117 1166.000000
17.150599 1161.000000
17.170081 1196.000000
17.189564 1191.000000
17.209046 1150.000000
17.228529 1200.000000
17.248011 1180.000000
17.267493 1114.000000
17.286976 1203.000000
17.306458 1179.000000
17.325940 1163.000000
17.345423 1186.000000
17.364905 1164.000000
17.384388 1171.000000
17.403870 1150.000000
17.423352 1207.000000
17.442835 1120.000000
17.462317 1132.000000
17.481799 1242.000000
17.501282 1184.000000
17.520764 1173.000000
17.540246 1191.000000
17.559729 1185.000000
17.579211 1158.000000
17.598694 1256.000000
17.618176 1179.000000
17.637658 1208.000000
17.657141 1152.000000
17.676623 1131.000000
17.696105 1171.000000
17.715588 1203.000000
17.735070 1129.000000
17.754553 1209.000000
17.774035 1173.000000
17.793517 1142.000000
17.813000 1171.000000
17.832482 1228.000000
17.851964 1129.000000
17.871447 1189.000000
17.890929 1205.000000
17.910411 1160.000000
17.929894 1198.000000
17.949376 1238.000000
17.968859 1219.000000
17.988341 1148.000000
18.007823 1197.000000
18.027306 1234.000000
18.046788 1205.000000
18.066270 1160.000000
18.085753 1286.000000
18.105235 1189.000000
18.124718 1188.000000
18.144200 1240.000000
18.163682 1270.000000
18.183165 1272.000000
18.202647 1290.000000
18.222129 1259.000000
18.241612 1273.000000
18.261094 1400.000000
18.280576 1476.000000
18.300059 1512.000000
18.319541 1497.000000
18.339024 1320.000000
18.358506 1307.000000
18.377988 1253.000000
18.397471 1207.000000
18.416953 1280.000000
18.436435 1248.000000
18.455918 1227.000000
18.475400 1196.000000
18.494883 1252.000000
18.514365 1218.000000
18.533847 1242.000000
18.553330 1219.000000
18.572812 1206.000000
18.592294 1177.000000
18.611777 1267.000000
18.631259 1281.000000
18.650741 1204.000000
18.670224 1216.000000
18.689706 1269.000000
18.709189 1236.000000
18.728671 1320.000000
18.748153 1368.000000
18.767636 1271.000000
18.787118 1198.000000
18.806600 1222.000000
18.826083 1287.000000
18.845565 1242.000000
18.865048 1186.000000
18.884530 1185.000000
18.904012 1220.000000
18.923495 1205.000000
18.942977 1143.000000
18.962459 1185.000000
18.981942 1271.000000
19.001424 1229.000000
19.020907 1143.000000
19.040389 1223.000000
19.059871 1277.000000
19.079354 1211.000000
19.098836 1179.000000
19.118318 1237.000000
19.137801 1166.000000
19.157283 1189.000000
19.176765 1187.000000
19.196248 1197.000000
19.215730 1228.000000
19.235213 1162.000000
19.254695 1142.000000
19.274177 1227.000000
19.293660 1199.000000
19.313142 1249.000000
19.332624 1277.000000
19.352107 1294.000000
19.371589 1228.000000
19.391072 1233.000000
19.410554 1267.000000
19.430036 1342.000000
19.449519 1252.000000
19.469001 1257.000000
19.488483 1258.000000
19.507966 1182.000000
19.527448 1231.000000
19.546930 1195.000000
19.566413 1222.000000
19.585895 1180.000000
19.605378 1240.000000
19.624860 1150.000000
19.644342 1232.000000
19.663825 1200.000000
19.683307 1220.000000
19.702789 1154.000000
19.722272 1168.000000
19.741754 1175.000000
19.761237 1146.000000
19.780719 1217.000000
19.800201 1189.000000
19.819684 1186.000000
19.839166 1193.000000
19.858648 1123.000000
19.878131 1252.000000
19.897613 1179.000000
19.917095 1198.000000
19.936578 1188.000000
19.956060 1171.000000
19.975543 1208.000000
19.995025 1271.000000
20.014507 1222.000000
20.033990 1223.000000
20.053472 1204.000000
20.072954 1241.000000
20.092437 1179.000000
20.111919 1210.000000
20.131402 1157.000000
20.150884 1192.000000
20.170366 1186.000000
20.189849 1224.000000
20.209331 1176.000000
20.228813 1169.000000
20.248296 1182.000000
20.267778 1183.000000
20.287260 1221.000000
20.306743 1198.000000
20.326225 1202.000000
20.345708 1216.000000
20.365190 1214.000000
20.384672 1214.000000
20.404155 1214.000000
20.423637 1258.000000
20.443119 1225.000000
20.462602 1196.000000
20.482084 1182.000000
20.501567 1190.000000
20.521049 1209.000000
20.540531 1228.000000
20.560014 1193.000000
20.579496 1168.000000
20.598978 1163.000000
20.618461 1224.000000
20.637943 1168.000000
20.657426 1186.000000
20.676908 1248.000000
20.696390 1203.000000
20.715873 1219.000000
20.735355 1227.000000
20.754837 1244.000000
20.774320 1176.000000
20.793802 1209.000000
20.813284 1309.000000
20.832767 1296.000000
20.852249 1310.000000
20.871732 1304.000000
20.891214 1282.000000
20.910696 1262.000000
20.930179 1172.000000
20.949661 1202.000000
20.969143 1217.000000
20.988626 1139.000000
21.008108 1126.000000
21.027591 1202.000000
21.047073 1163.000000
21.066555 1244.000000
21.086038 1171.000000
21.105520 1248.000000
21.125002 1231.000000
21.144485 1216.000000
21.163967 1166.000000
21.183449 1204.000000
21.202932 1216.000000
21.222414 1270.000000
21.241897 1162.000000
21.261379 1229.000000
21.280861 1147.000000
21.300344 1181.000000
21.319826 1235.000000
21.339308 1168.000000
21.358791 1226.000000
21.378273 1248.000000
21.397756 1199.000000
21.417238 1135.000000
21.436720 1153.000000
21.456203 1161.000000
21.475685 1304.000000
21.495167 1155.000000
21.514650 1201.000000
21.534132 1175.000000
21.553614 1173.000000
21.573097 1162.000000
21.592579 1167.000000
21.612062 1240.000000
21.631544 1159.000000
21.651026 1172.000000
21.670509 1283.000000
21.689991 1210.000000
21.709473 1208.000000
21.728956 1207.000000
21.748438 1211.000000
21.767921 1203.000000
21.787403 1213.000000
21.806885 1255.000000
21.826368 1243.000000
21.845850 1202.000000
21.865332 1200.000000
21.884815 1203.000000
21.904297 1227.000000
21.923779 1229.000000
21.943262 1230.000000
21.962744 1212.000000
21.982227 1234.000000
22.001709 1217.000000
22.021191 1182.000000
22.040674 1156.000000
22.060156 1201.000000
22.079638 1212.000000
22.099121 1181.000000
22.118603 1204.000000
22.138086 1140.000000
22.157568 1185.000000
22.177050 1168.000000
22.196533 1173.000000
22.216015 1199.000000
22.235497 1138.000000
22.254980 1203.000000
22.274462 1230.000000
22.293945 1244.000000
22.313427 1232.000000
22.332909 1158.000000
22.352392 1181.000000
22.371874 1204.000000
22.391356 1234.000000
22.410839 1189.000000
22.430321 1196.000000
22.449803 1168.000000
22.469286 1176.000000
22.488768 1220.000000
22.508251 1258.000000
22.527733 1236.000000
22.547215 1241.000000
22.566698 1274.000000
22.586180 1257.000000
22.605662 1218.000000
22.625145 1198.000000
22.644627 1172.000000
22.664110 1210.000000
22.683592 1205.000000
22.703074 1184.000000
22.722557 1239.000000
22.742039 1161.000000
22.761521 1322.000000
22.781004 1185.000000
22.800486 1185.000000
22.819968 1261.000000
22.839451 1231.000000
22.858933 1186.000000
22.878416 1226.000000
22.897898 1241.000000
22.917380 1200.000000
22.936863 1255.000000
22.956345 1219.000000
22.975827 1238.000000
22.995310 1202.000000
23.014792 1237.000000
23.034275 1263.000000
23.053757 1264.000000
23.073239 1345.000000
23.092722 1325.000000
23.112204 1308.000000
23.131686 1171.000000
23.151169 1324.000000
23.170651 1256.000000
23.190133 1270.000000
23.209616 1225.000000
23.229098 1278.000000
23.248581 1224.000000
23.268063 1227.000000
23.287545 1211.000000
23.307028 1158.000000
23.326510 1200.000000
23.345992 1211.000000
23.365475 1203.000000
23.384957 1235.000000
23.404440 1238.000000
23.423922 1181.000000
23.443404 1190.000000
23.462887 1146.000000
23.482369 1201.000000
23.501851 1204.000000
23.521334 1204.000000
23.540816 1227.000000
23.560298 1249.000000
23.579781 1233.000000
23.599263 1238.000000
23.618746 1261.000000
23.638228 1165.000000
23.657710 1246.000000
23.677193 1212.000000
23.696675 1232.000000
23.716157 1177.000000
23.735640 1189.000000
23.755122 1153.000000
23.774605 1239.000000
23.794087 1237.000000
23.813569 1190.000000
23.833052 1227.000000
23.852534 1281.000000
23.872016 1195.000000
23.891499 1184.000000
23.910981 1172.000000
23.930463 1215.000000
23.949946 1172.000000
23.969428 1271.000000
23.988911 1241.000000
24.008393 1252.000000
24.027875 1144.000000
24.047358 1287.000000
24.066840 1197.000000
24.086322 1213.000000
24.105805 1220.000000
24.125287 1262.000000
24.144770 1257.000000
24.164252 1263.000000
24.183734 1245.000000
24.203217 1213.000000
24.222699 1250.000000
24.242181 1159.000000
24.261664 1189.000000
24.281146 1220.000000
24.300629 1198.000000
24.320111 1215.000000
24.339593 1196.000000
24.359076 1234.000000
24.378558 1196.000000
24.398040 1226.000000
24.417523 1267.000000
24.437005 1208.000000
24.456487 1229.000000
24.475970 1141.000000
24.495452 1192.000000
24.514935 1203.000000
24.534417 1213.000000
24.553899 1177.000000
24.573382 1186.000000
24.592864 1190.000000
24.612346 1230.000000
24.631829 1312.000000
24.651311 1258.000000
24.670794 1224.000000
24.690276 1160.000000
24.709758 1295.000000
24.729241 1220.000000
24.748723 1248.000000
24.768205 1200.000000
24.787688 1193.000000
24.807170 1210.000000
24.826652 1212.000000
24.846135 1232.000000
24.865617 1216.000000
24.885100 1248.000000
24.904582 1198.000000
24.924064 1213.000000
24.943547 1254.000000
24.963029 1206.000000
24.982511 1256.000000
25.001994 1236.000000
25.021476 1294.000000
25.040959 1257.000000
25.060441 1315.000000
25.079923 1399.000000
25.099406 1286.000000
25.118888 1307.000000
25.138370 1251.000000
25.157853 1263.000000
25.177335 1219.000000
25.196817 1226.000000
25.216300 1258.000000
25.235782 1168.000000
25.255265 1198.000000
25.274747 1219.000000
25.294229 1211.000000
25.313712 1186.000000
25.333194 1161.000000
25.352676 1229.000000
25.372159 1197.000000
25.391641 1244.000000
25.411124 1197.000000
25.430606 1222.000000
25.450088 1225.000000
25.469571 1205.000000
25.489053 1194.000000
25.508535 1206.000000
25.528018 1189.000000
25.547500 1178.000000
25.566982 1205.000000
25.586465 1227.000000
25.605947 1154.000000
25.625430 1134.000000
25.644912 1148.000000
25.664394 1239.000000
25.683877 1197.000000
25.703359 1169.000000
25.722841 1181.000000
25.742324 1151.000000
25.761806 1264.000000
25.781289 1224.000000
25.800771 1223.000000
25.820253 1223.000000
25.839736 1214.000000
25.859218 1230.000000
25.878700 1186.000000
25.898183 1189.000000
25.917665 1188.000000
25.937148 1225.000000
25.956630 1204.000000
25.976112 1177.000000
25.995595 1159.000000
26.015077 1248.000000
26.034559 1225.000000
26.054042 1248.000000
26.073524 1240.000000
26.093006 1238.000000
26.112489 1195.000000
26.131971 1227.000000
26.151454 1204.000000
26.170936 1197.000000
26.190418 1200.000000
26.209901 1245.000000
26.229383 1203.000000
26.248865 1213.000000
26.268348 1229.000000
26.287830 1219.000000
26.307313 1170.000000
26.326795 1200.000000
26.346277 1171.000000
26.365760 1246.000000
26.385242 1248.000000
26.404724 1214.000000
26.424207 1225.000000
26.443689 1233.000000
26.463171 1183.000000
26.482654 1268.000000
26.502136 1240.000000
26.521619 1215.000000
26.541101 1315.000000
26.560583 1218.000000
26.580066 1221.000000
26.599548 1440.000000
26.619030 1479.000000
26.638513 1760.000000
26.657995 1763.000000
26.677478 1576.000000
26.696960 1496.000000
26.716442 1532.000000
26.735925 1458.000000
26.755407 1315.000000
26.774889 1271.000000
26.794372 1210.000000
26.813854 1282.000000
26.833336 1222.000000
26.852819 1228.000000
26.872301 1233.000000
26.891784 1217.000000
26.911266 1205.000000
26.930748 1242.000000
26.950231 1229.000000
26.969713 1216.000000
26.989195 1197.000000
27.008678 1240.000000
27.028160 1267.000000
27.047643 1234.000000
27.067125 1219.000000
27.086607 1265.000000
27.106090 1238.000000
27.125572 1256.000000
27.145054 1284.000000
27.164537 1236.000000
27.184019 1265.000000
27.203501 1177.000000
27.222984 1223.000000
27.242466 1240.000000
27.261949 1240.000000
27.281431 1211.000000
27.300913 1284.000000
27.320396 1271.000000
27.339878 1223.000000
27.359360 1234.000000
27.378843 1196.000000
27.398325 1263.000000
27.417808 1267.000000
27.437290 1199.000000
27.456772 1147.000000
27.476255 1240.000000
27.495737 1226.000000
27.515219 1224.000000
27.534702 1267.000000
27.554184 1208.000000
27.573667 1241.000000
27.593149 1280.000000
27.612631 1161.000000
27.632114 1232.000000
27.651596 1161.000000
27.671078 1208.000000
27.690561 1213.000000
27.710043 1301.000000
27.729525 1268.000000
27.749008 1261.000000
27.768490 1244.000000
27.787973 1245.000000
27.807455 1264.000000
27.826937 1197.000000
27.846420 1254.000000
27.865902 1251.000000
27.885384 1223.000000
27.904867 1212.000000
27.924349 1261.000000
27.943832 1216.000000
27.963314 1259.000000
27.982796 1288.000000
28.002279 1257.000000
28.021761 1182.000000
28.041243 1181.000000
28.060726 1206.000000
28.080208 1194.000000
28.099690 1217.000000
28.119173 1227.000000
28.138655 1153.000000
28.158138 1263.000000
28.177620 1244.000000
28.197102 1303.000000
28.216585 1242.000000
28.236067 1231.000000
28.255549 1168.000000
28.275032 1254.000000
28.294514 1272.000000
28.313997 1199.000000
28.333479 1293.000000
28.352961 1210.000000
28.372444 1264.000000
28.391926 1226.000000
28.411408 1275.000000
28.430891 1329.000000
28.450373 1238.000000
28.469855 1316.000000
28.489338 1267.000000
28.508820 1318.000000
28.528303 1272.000000
28.547785 1313.000000
28.567267 1407.000000
28.586750 1447.000000
28.606232 1395.000000
28.625714 1450.000000
28.645197 1320.000000
28.664679 1345.000000
28.684162 1391.000000
28.703644 1293.000000
28.723126 1262.000000
28.742609 1253.000000
28.762091 1285.000000
28.781573 1193.000000
28.801056 1263.000000
28.820538 1215.000000
28.840020 1281.000000
28.859503 1251.000000
28.878985 1155.000000
28.898468 1236.000000
28.917950 1264.000000
28.937432 1209.000000
28.956915 1201.000000
28.976397 1241.000000
28.995879 1205.000000
29.015362 1226.000000
29.034844 1220.000000
29.054327 1239.000000
29.073809 1261.000000
29.093291 1234.000000
29.112774 1249.000000
29.132256 1267.000000
29.151738 1254.000000
29.171221 1178.000000
29.190703 1211.000000
29.210185 1233.000000
29.229668 1337.000000
29.249150 1269.000000
29.268633 1239.000000
29.288115 1349.000000
29.307597 1350.000000
29.327080 1440.000000
29.346562 1675.000000
29.366044 2100.000000
29.385527 2792.000000
29.405009 2921.000000
29.424492 2522.000000
29.443974 2385.000000
29.463456 2396.000000
29.482939 2266.000000
29.502421 1939.000000
29.521903 1629.000000
29.541386 1498.000000
29.560868 1453.000000
29.580351 1345.000000
29.599833 1379.000000
29.619315 1338.000000
29.638798 1277.000000
29.658280 1321.000000
29.677762 1370.000000
29.697245 1327.000000
29.716727 1348.000000
29.736209 1269.000000
29.755692 1302.000000
29.775174 1311.000000
29.794657 1265.000000
29.814139 1259.000000
29.833621 1257.000000
29.853104 1260.000000
29.872586 1245.000000
29.892068 1261.000000
29.911551 1243.000000
29.931033 1280.000000
29.950516 1264.000000
29.969998 1258.000000
29.989480 1308.000000
30.008963 1360.000000
30.028445 1507.000000
30.047927 1674.000000
30.067410 2041.000000
30.086892 2095.000000
30.106374 1811.000000
30.125857 1647.000000
30.145339 1709.000000
30.164822 1624.000000
30.184304 1471.000000
30.203786 1402.000000
30.223269 1310.000000
30.242751 1370.000000
30.262233 1248.000000
30.281716 1258.000000
30.301198 1261.000000
30.320681 1215.000000
30.340163 1293.000000
30.359645 1246.000000
30.379128 1221.000000
30.398610 1255.000000
30.418092 1258.000000
30.437575 1286.000000
30.457057 1214.000000
30.476539 1278.000000
30.496022 1145.000000
30.515504 1261.000000
30.534987 1169.000000
30.554469 1208.000000
30.573951 1228.000000
30.593434 1250.000000
30.612916 1223.000000
30.632398 1253.000000
30.651881 1252.000000
30.671363 1235.000000
30.690846 1209.000000
30.710328 1281.000000
30.729810 1233.000000
30.749293 1172.000000
30.768775 1207.000000
30.788257 1217.000000
30.807740 1257.000000
30.827222 1296.000000
30.846704 1239.000000
30.866187 1297.000000
30.885669 1227.000000
30.905152 1240.000000
30.924634 1262.000000
30.944116 1329.000000
30.963599 1228.000000
30.983081 1247.000000
31.002563 1200.000000
31.022046 1254.000000
31.041528 1247.000000
31.061011 1277.000000
31.080493 1290.000000
31.099975 1302.000000
31.119458 1236.000000
31.138940 1236.000000
31.158422 1221.000000
31.177905 1191.000000
31.197387 1241.000000
31.216870 1227.000000
31.236352 1267.000000
31.255834 1137.000000
31.275317 1163.000000
31.294799 1277.000000
31.314281 1271.000000
31.333764 1281.000000
31.353246 1210.000000
31.372728 1243.000000
31.392211 1293.000000
31.411693 1281.000000
31.431176 1297.000000
31.450658 1344.000000
31.470140 1306.000000
31.489623 1344.000000
31.509105 1311.000000
31.528587 1329.000000
31.548070 1280.000000
31.567552 1346.000000
31.587035 1231.000000
31.606517 1233.000000
31.625999 1249.000000
31.645482 1175.000000
31.664964 1306.000000
31.684446 1173.000000
31.703929 1253.000000
31.723411 1257.000000
31.742893 1242.000000
31.762376 1225.000000
31.781858 1267.000000
31.801341 1178.000000
31.820823 1233.000000
31.840305 1259.000000
31.859788 1373.000000
31.879270 1302.000000
31.898752 1378.000000
31.918235 1283.000000
31.937717 1249.000000
31.957200 1215.000000
31.976682 1329.000000
31.996164 1234.000000
32.015647 1203.000000
32.035129 1211.000000
32.054611 1260.000000
32.074094 1195.000000
32.093576 1211.000000
32.113058 1232.000000
32.132541 1211.000000
32.152023 1243.000000
32.171506 1273.000000
32.190988 1250.000000
32.210470 1272.000000
32.229953 1190.000000
32.249435 1234.000000
32.268917 1211.000000
32.288400 1243.000000
32.307882 1282.000000
32.327365 1277.000000
32.346847 1192.000000
32.366329 1198.000000
32.385812 1222.000000
32.405294 1256.000000
32.424776 1280.000000
32.444259 1260.000000
32.463741 1285.000000
32.483223 1199.000000
32.502706 1236.000000
32.522188 1288.000000
32.541671 1280.000000
32.561153 1260.000000
32.580635 1313.000000
32.600118 1258.000000
32.619600 1304.000000
32.639082 1303.000000
32.658565 1243.000000
32.678047 1243.000000
32.697530 1224.000000
32.717012 1333.000000
32.736494 1188.000000
32.755977 1224.000000
32.775459 1243.000000
32.794941 1237.000000
32.814424 1240.000000
32.833906 1218.000000
32.853389 1282.000000
32.872871 1228.000000
32.892353 1204.000000
32.911836 1229.000000
32.931318 1241.000000
32.950800 1298.000000
32.970283 1254.000000
32.989765 1299.000000
33.009247 1266.000000
33.028730 1254.000000
33.048212 1239.000000
33.067695 1236.000000
33.087177 1222.000000
33.106659 1340.000000
33.126142 1323.000000
33.145624 1302.000000
33.165106 1378.000000
33.184589 1309.000000
33.204071 1427.000000
33.223554 1674.000000
33.243036 1651.000000
33.262518 1432.000000
33.282001 1427.000000
33.301483 1444.000000
33.320965 1483.000000
33.340448 1393.000000
33.359930 1299.000000
33.379412 1210.000000
33.398895 1284.000000
33.418377 1190.000000
33.437860 1254.000000
33.457342 1221.000000
33.476824 1255.000000
33.496307 1212.000000
33.515789 1249.000000
33.535271 1281.000000
33.554754 1298.000000
33.574236 1282.000000
33.593719 1195.000000
33.613201 1256.000000
33.632683 1234.000000
33.652166 1265.000000
33.671648 1232.000000
33.691130 1290.000000
33.710613 1294.000000
33.730095 1317.000000
33.749577 1233.000000
33.769060 1185.000000
33.788542 1211.000000
33.808025 1243.000000
33.827507 1270.000000
33.846989 1290.000000
33.866472 1294.000000
33.885954 1262.000000
33.905436 1273.000000
33.924919 1294.000000
33.944401 1256.000000
33.963884 1246.000000
33.983366 1277.000000
34.002848 1279.000000
34.022331 1269.000000
34.041813 1235.000000
34.061295 1260.000000
34.080778 1245.000000
34.100260 1223.000000
34.119742 1239.000000
34.139225 1223.000000
34.158707 1229.000000
34.178190 1262.000000
34.197672 1241.000000
34.217154 1235.000000
34.236637 1237.000000
34.256119 1301.000000
34.275601 1280.000000
34.295084 1250.000000
34.314566 1269.000000
34.334049 1276.000000
34.353531 1186.000000
34.373013 1240.000000
34.392496 1301.000000
34.411978 1286.000000
34.431460 1273.000000
34.450943 1334.000000
34.470425 1311.000000
34.489908 1331.000000
34.509390 1277.000000
34.528872 1312.000000
34.548355 1321.000000
34.567837 1269.000000
34.587319 1258.000000
34.606802 1211.000000
34.626284 1291.000000
34.645766 1231.000000
34.665249 1243.000000
34.684731 1283.000000
34.704214 1302.000000
34.723696 1336.000000
34.743178 1307.000000
34.762661 1219.000000
34.782143 1282.000000
34.801625 1257.000000
34.821108 1235.000000
34.840590 1300.000000
34.860073 1306.000000
34.879555 1286.000000
34.899037 1293.000000
34.918520 1275.000000
34.938002 1317.000000
34.957484 1325.000000
34.976967 1352.000000
34.996449 1230.000000
35.015931 1337.000000
35.035414 1258.000000
35.054896 1303.000000
35.074379 1301.000000
35.093861 1264.000000
35.113343 1312.000000
35.132826 1318.000000
35.152308 1354.000000
35.171790 1308.000000
35.191273 1373.000000
35.210755 1366.000000
35.230238 1385.000000
35.249720 1440.000000
35.269202 1396.000000
35.288685 1431.000000
35.308167 1474.000000
35.327649 1522.000000
35.347132 1726.000000
35.366614 2152.000000
35.386096 2801.000000
35.405579 3911.000000
35.425061 4615.000000
35.444544 4355.000000
35.464026 3381.000000
35.483508 2937.000000
35.502991 3069.000000
35.522473 3002.000000
35.541955 2562.000000
35.561438 2161.000000
35.580920 1752.000000
35.600403 1510.000000
35.619885 1525.000000
35.639367 1398.000000
35.658850 1366.000000
35.678332 1322.000000
35.697814 1411.000000
35.717297 1302.000000
35.736779 1368.000000
35.756261 1341.000000
35.775744 1330.000000
35.795226 1316.000000
35.814709 1299.000000
35.834191 1327.000000
35.853673 1387.000000
35.873156 1303.000000
35.892638 1297.000000
35.912120 1304.000000
35.931603 1313.000000
35.951085 1324.000000
35.970568 1318.000000
35.990050 1329.000000
36.009532 1358.000000
36.029015 1392.000000
36.048497 1310.000000
36.067979 1340.000000
36.087462 1354.000000
36.106944 1347.000000
36.126426 1360.000000
36.145909 1258.000000
36.165391 1302.000000
36.184874 1258.000000
36.204356 1297.000000
36.223838 1204.000000
36.243321 1266.000000
36.262803 1225.000000
36.282285 1284.000000
36.301768 1301.000000
36.321250 1274.000000
36.340733 1281.000000
36.360215 1297.000000
36.379697 1256.000000
36.399180 1298.000000
36.418662 1290.000000
36.438144 1300.000000
36.457627 1385.000000
36.477109 1369.000000
36.496592 1427.000000
36.516074 1501.000000
36.535556 1579.000000
36.555039 1499.000000
36.574521 1403.000000
36.594003 1384.000000
36.613486 1381.000000
36.632968 1431.000000
36.652450 1320.000000
36.671933 1380.000000
36.691415 1259.000000
36.710898 1333.000000
36.730380 1281.000000
36.749862 1285.000000
36.769345 1353.000000
36.788827 1265.000000
36.808309 1284.000000
36.827792 1343.000000
36.847274 1289.000000
36.866757 1350.000000
36.886239 1239.000000
36.905721 1280.000000
36.925204 1284.000000
36.944686 1251.000000
36.964168 1325.000000
36.983651 1306.000000
37.003133 1376.000000
37.022615 1396.000000
37.042098 1441.000000
37.061580 1522.000000
37.081063 1482.000000
37.100545 1316.000000
37.120027 1380.000000
37.139510 1285.000000
37.158992 1361.000000
37.178474 1328.000000
37.197957 1347.000000
37.217439 1270.000000
37.236922 1307.000000
37.256404 1289.000000
37.275886 1232.000000
37.295369 1226.000000
37.314851 1283.000000
37.334333 1248.000000
37.353816 1263.000000
37.373298 1291.000000
37.392780 1308.000000
37.412263 1262.000000
37.431745 1289.000000
37.451228 1280.000000
37.470710 1299.000000
37.490192 1226.000000
37.509675 1308.000000
37.529157 1334.000000
37.548639 1270.000000
37.568122 1264.000000
37.587604 1240.000000
37.607087 1287.000000
37.626569 1291.000000
37.646051 1264.000000
37.665534 1263.000000
37.685016 1229.000000
37.704498 1261.000000
37.723981 1295.000000
37.743463 1230.000000
37.762945 1258.000000
37.782428 1281.000000
37.801910 1212.000000
37.821393 1296.000000
37.840875 1253.000000
37.860357 1222.000000
37.879840 1296.000000
37.899322 1258.000000
37.918804 1296.000000
37.938287 1293.000000
37.957769 1244.000000
37.977252 1324.000000
37.996734 1267.000000
38.016216 1314.000000
38.035699 1326.000000
38.055181 1265.000000
38.074663 1310.000000
38.094146 1291.000000
38.113628 1244.000000
38.133111 1291.000000
38.152593 1263.000000
38.172075 1297.000000
38.191558 1225.000000
38.211040 1269.000000
38.230522 1210.000000
38.250005 1260.000000
38.269487 1287.000000
38.288969 1210.000000
38.308452 1259.000000
38.327934 1259.000000
38.347417 1206.000000
38.366899 1209.000000
38.386381 1287.000000
38.405864 1321.000000
38.425346 1281.000000
38.444828 1221.000000
38.464311 1266.000000
38.483793 1317.000000
38.503276 1274.000000
38.522758 1269.000000
38.542240 1304.000000
38.561723 1312.000000
38.581205 1258.000000
38.600687 1268.000000
38.620170 1280.000000
38.639652 1274.000000
38.659134 1241.000000
38.678617 1299.000000
38.698099 1316.000000
38.717582 1247.000000
38.737064 1266.000000
38.756546 1252.000000
38.776029 1240.000000
38.795511 1264.000000
38.814993 1281.000000
38.834476 1261.000000
38.853958 1271.000000
38.873441 1309.000000
38.892923 1265.000000
38.912405 1283.000000
38.931888 1265.000000
38.951370 1323.000000
38.970852 1271.000000
38.990335 1269.000000
39.009817 1276.000000
39.029299 1304.000000
39.048782 1250.000000
39.068264 1271.000000
39.087747 1248.000000
39.107229 1343.000000
39.126711 1383.000000
39.146194 1322.000000
39.165676 1260.000000
39.185158 1313.000000
39.204641 1230.000000
39.224123 1286.000000
39.243606 1335.000000
39.263088 1300.000000
39.282570 1234.000000
39.302053 1299.000000
39.321535 1301.000000
39.341017 1379.000000
39.360500 1290.000000
39.379982 1395.000000
39.399464 1372.000000
39.418947 1465.000000
39.438429 1464.000000
39.457912 1448.000000
39.477394 1403.000000
39.496876 1400.000000
39.516359 1493.000000
39.535841 1425.000000
39.555323 1377.000000
39.574806 1316.000000
39.594288 1357.000000
39.613771 1333.000000
39.633253 1321.000000
39.652735 1368.000000
39.672218 1344.000000
39.691700 1325.000000
39.711182 1322.000000
39.730665 1274.000000
39.750147 1282.000000
39.769630 1272.000000
39.789112 1374.000000
39.808594 1269.000000
39.828077 1281.000000
39.847559 1336.000000
39.867041 1259.000000
39.886524 1334.000000
39.906006 1282.000000
39.925488 1316.000000
39.944971 1328.000000
39.964453 1269.000000
39.983936 1213.000000
40.003418 1248.000000
40.022900 1306.000000
40.042383 1300.000000
40.061865 1227.000000
40.081347 1310.000000
40.100830 1264.000000
40.120312 1263.000000
40.139795 1246.000000
40.159277 1273.000000
40.178759 1285.000000
40.198242 1274.000000
40.217724 1273.000000
40.237206 1329.000000
40.256689 1244.000000
40.276171 1241.000000
40.295653 1312.000000
40.315136 1357.000000
40.334618 1218.000000
40.354101 1258.000000
40.373583 1338.000000
40.393065 1287.000000
40.412548 1349.000000
40.432030 1321.000000
40.451512 1318.000000
40.470995 1242.000000
40.490477 1290.000000
40.509960 1291.000000
40.529442 1357.000000
40.548924 1283.000000
40.568407 1328.000000
40.587889 1237.000000
40.607371 1266.000000
40.626854 1368.000000
40.646336 1308.000000
40.665818 1345.000000
40.685301 1334.000000
40.704783 1309.000000
40.724266 1296.000000
40.743748 1282.000000
40.763230 1269.000000
40.782713 1303.000000
40.802195 1332.000000
40.821677 1272.000000
40.841160 1337.000000
40.860642 1258.000000
40.880125 1308.000000
40.899607 1274.000000
40.919089 1254.000000
40.938572 1389.000000
40.958054 1288.000000
40.977536 1280.000000
40.997019 1289.000000
41.016501 1308.000000
41.035983 1315.000000
41.055466 1324.000000
41.074948 1332.000000
41.094431 1294.000000
41.113913 1322.000000
41.133395 1287.000000
41.152878 1313.000000
41.172360 1284.000000
41.191842 1290.000000
41.211325 1281.000000
41.230807 1307.000000
41.250290 1358.000000
41.269772 1325.000000
41.289254 1261.000000
41.308737 1287.000000
41.328219 1276.000000
41.347701 1301.000000
41.367184 1258.000000
41.386666 1284.000000
41.406149 1303.000000
41.425631 1277.000000
41.445113 1300.000000
41.464596 1298.000000
41.484078 1289.000000
41.503560 1339.000000
41.523043 1239.000000
41.542525 1351.000000
41.562007 1243.000000
41.581490 1353.000000
41.600972 1337.000000
41.620455 1232.000000
41.639937 1304.000000
41.659419 1300.000000
41.678902 1265.000000
41.698384 1370.000000
41.717866 1243.000000
41.737349 1312.000000
41.756831 1290.000000
41.776314 1265.000000
41.795796 1306.000000
41.815278 1289.000000
41.834761 1275.000000
41.854243 1389.000000
41.873725 1245.000000
41.893208 1307.000000
41.912690 1353.000000
41.932172 1289.000000
41.951655 1276.000000
41.971137 1265.000000
41.990620 1369.000000
42.010102 1278.000000
42.029584 1255.000000
42.049067 1275.000000
42.068549 1344.000000
42.088031 1310.000000
42.107514 1219.000000
42.126996 1270.000000
42.146479 1331.000000
42.165961 1357.000000
42.185443 1308.000000
42.204926 1252.000000
42.224408 1343.000000
42.243890 1259.000000
42.263373 1286.000000
42.282855 1320.000000
42.302337 1348.000000
42.321820 1365.000000
42.341302 1294.000000
42.360785 1345.000000
42.380267 1289.000000
42.399749 1293.000000
42.419232 1308.000000
42.438714 1334.000000
42.458196 1328.000000
42.477679 1362.000000
42.497161 1318.000000
42.516644 1347.000000
42.536126 1267.000000
42.555608 1297.000000
42.575091 1301.000000
42.594573 1317.000000
42.614055 1302.000000
42.633538 1292.000000
42.653020 1304.000000
42.672502 1239.000000
42.691985 1247.000000
42.711467 1332.000000
42.730950 1326.000000
42.750432 1308.000000
42.769914 1263.000000
42.789397 1280.000000
42.808879 1336.000000
42.828361 1374.000000
42.847844 1256.000000
42.867326 1315.000000
42.886809 1351.000000
42.906291 1321.000000
42.925773 1358.000000
42.945256 1329.000000
42.964738 1329.000000
42.984220 1460.000000
43.003703 1424.000000
43.023185 1531.000000
43.042667 1681.000000
43.062150 1856.000000
43.081632 1802.000000
43.101115 1646.000000
43.120597 1581.000000
43.140079 1501.000000
43.159562 1585.000000
43.179044 1690.000000
43.198526 1556.000000
43.218009 1506.000000
43.237491 1473.000000
43.256974 1363.000000
43.276456 1291.000000
43.295938 1370.000000
43.315421 1357.000000
43.334903 1344.000000
43.354385 1316.000000
43.373868 1319.000000
43.393350 1342.000000
43.412833 1331.000000
43.432315 1366.000000
43.451797 1327.000000
43.471280 1281.000000
43.490762 1338.000000
43.510244 1278.000000
43.529727 1310.000000
43.549209 1366.000000
43.568691 1300.000000
43.588174 1345.000000
43.607656 1350.000000
43.627139 1320.000000
43.646621 1306.000000
43.666103 1320.000000
43.685586 1316.000000
43.705068 1284.000000
43.724550 1302.000000
43.744033 1346.000000
43.763515 1341.000000
43.782998 1338.000000
43.802480 1354.000000
43.821962 1366.000000
43.841445 1263.000000
43.860927 1323.000000
43.880409 1397.000000
43.899892 1314.000000
43.919374 1282.000000
43.938856 1336.000000
43.958339 1292.000000
43.977821 1283.000000
43.997304 1314.000000
44.016786 1277.000000
44.036268 1285.000000
44.055751 1340.000000
44.075233 1286.000000
44.094715 1311.000000
44.114198 1249.000000
44.133680 1358.000000
44.153163 1307.000000
44.172645 1281.000000
44.192127 1311.000000
44.211610 1309.000000
44.231092 1308.000000
44.250574 1339.000000
44.270057 1277.000000
44.289539 1382.000000
44.309021 1314.000000
44.328504 1305.000000
44.347986 1285.000000
44.367469 1302.000000
44.386951 1248.000000
44.406433 1253.000000
44.425916 1317.000000
44.445398 1345.000000
44.464880 1246.000000
44.484363 1358.000000
44.503845 1324.000000
44.523328 1286.000000
44.542810 1319.000000
44.562292 1247.000000
44.581775 1266.000000
44.601257 1312.000000
44.620739 1324.000000
44.640222 1234.000000
44.659704 1282.000000
44.679186 1288.000000
44.698669 1258.000000
44.718151 1286.000000
44.737634 1281.000000
44.757116 1272.000000
44.776598 1315.000000
44.796081 1327.000000
44.815563 1349.000000
44.835045 1228.000000
44.854528 1383.000000
44.874010 1258.000000
44.893493 1318.000000
44.912975 1348.000000
44.932457 1341.000000
44.951940 1304.000000
44.971422 1308.000000
44.990904 1337.000000
45.010387 1338.000000
45.029869 1268.000000
45.049352 1268.000000
45.068834 1317.000000
45.088316 1313.000000
45.107799 1347.000000
45.127281 1324.000000
45.146763 1258.000000
45.166246 1361.000000
45.185728 1346.000000
45.205210 1336.000000
45.224693 1368.000000
45.244175 1283.000000
45.263658 1246.000000
45.283140 1303.000000
45.302622 1300.000000
45.322105 1281.000000
45.341587 1299.000000
45.361069 1272.000000
45.380552 1295.000000
45.400034 1270.000000
45.419517 1269.000000
45.438999 1326.000000
45.458481 1250.000000
45.477964 1279.000000
45.497446 1240.000000
45.516928 1370.000000
45.536411 1359.000000
45.555893 1302.000000
45.575375 1339.000000
45.594858 1254.000000
45.614340 1317.000000
45.633823 1275.000000
45.653305 1334.000000
45.672787 1305.000000
45.692270 1291.000000
45.711752 1250.000000
45.731234 1311.000000
45.750717 1303.000000
45.770199 1313.000000
45.789682 1315.000000
45.809164 1365.000000
45.828646 1308.000000
45.848129 1295.000000
45.867611 1288.000000
45.887093 1271.000000
45.906576 1307.000000
45.926058 1313.000000
45.945540 1318.000000
45.965023 1290.000000
45.984505 1316.000000
46.003988 1300.000000
46.023470 1350.000000
46.042952 1318.000000
46.062435 1246.000000
46.081917 1356.000000
46.101399 1265.000000
46.120882 1329.000000
46.140364 1359.000000
46.159847 1313.000000
46.179329 1304.000000
46.198811 1258.000000
46.218294 1293.000000
46.237776 1298.000000
46.257258 1295.000000
46.276741 1332.000000
46.296223 1350.000000
46.315705 1325.000000
46.335188 1283.000000
46.354670 1333.000000
46.374153 1299.000000
46.393635 1329.000000
46.413117 1336.000000
46.432600 1340.000000
46.452082 1363.000000
46.471564 1370.000000
46.491047 1326.000000
46.510529 1265.000000
46.530012 1384.000000
46.549494 1354.000000
46.568976 1338.000000
46.588459 1318.000000
46.607941 1301.000000
46.627423 1389.000000
46.646906 1307.000000
46.666388 1301.000000
46.685871 1325.000000
46.705353 1278.000000
46.724835 1342.000000
46.744318 1295.000000
46.763800 1328.000000
46.783282 1328.000000
46.802765 1367.000000
46.822247 1320.000000
46.841729 1345.000000
46.861212 1315.000000
46.880694 1285.000000
46.900177 1302.000000
46.919659 1281.000000
46.939141 1349.000000
46.958624 1416.000000
46.978106 1366.000000
46.997588 1350.000000
47.017071 1314.000000
47.036553 1308.000000
47.056036 1342.000000
47.075518 1290.000000
47.095000 1309.000000
47.114483 1308.000000
47.133965 1409.000000
47.153447 1379.000000
47.172930 1362.000000
47.192412 1333.000000
47.211894 1325.000000
47.231377 1311.000000
47.250859 1325.000000
47.270342 1390.000000
47.289824 1355.000000
47.309306 1329.000000
47.328789 1377.000000
47.348271 1341.000000
47.367753 1339.000000
47.387236 1397.000000
47.406718 1356.000000
47.426201 1362.000000
47.445683 1340.000000
47.465165 1331.000000
47.484648 1330.000000
47.504130 1411.000000
47.523612 1527.000000
47.543095 1481.000000
47.562577 1461.000000
47.582059 1403.000000
47.601542 1375.000000
47.621024 1378.000000
47.640507 1400.000000
47.659989 1398.000000
47.679471 1413.000000
47.698954 1364.000000
47.718436 1415.000000
47.737918 1395.000000
47.757401 1330.000000
47.776883 1395.000000
47.796366 1374.000000
47.815848 1329.000000
47.835330 1285.000000
47.854813 1352.000000
47.874295 1245.000000
47.893777 1357.000000
47.913260 1339.000000
47.932742 1286.000000
47.952224 1337.000000
47.971707 1327.000000
47.991189 1303.000000
48.010672 1374.000000
48.030154 1347.000000
48.049636 1437.000000
48.069119 1373.000000
48.088601 1307.000000
48.108083 1332.000000
48.127566 1317.000000
48.147048 1319.000000
48.166531 1314.000000
48.186013 1361.000000
48.205495 1328.000000
48.224978 1246.000000
48.244460 1376.000000
48.263942 1337.000000
48.283425 1372.000000
48.302907 1338.000000
48.322389 1320.000000
48.341872 1300.000000
48.361354 1293.000000
48.380837 1325.000000
48.400319 1290.000000
48.419801 1339.000000
48.439284 1377.000000
48.458766 1408.000000
48.478248 1411.000000
48.497731 1486.000000
48.517213 1571.000000
48.536696 1528.000000
48.556178 1583.000000
48.575660 1546.000000
48.595143 1485.000000
48.614625 1552.000000
48.634107 1541.000000
48.653590 1518.000000
48.673072 1515.000000
48.692555 1497.000000
48.712037 1386.000000
48.731519 1470.000000
48.751002 1412.000000
48.770484 1377.000000
48.789966 1417.000000
48.809449 1455.000000
48.828931 1340.000000
48.848413 1312.000000
48.867896 1308.000000
48.887378 1369.000000
48.906861 1324.000000
48.926343 1360.000000
48.945825 1319.000000
48.965308 1287.000000
48.984790 1343.000000
49.004272 1336.000000
49.023755 1302.000000
49.043237 1324.000000
49.062720 1312.000000
49.082202 1346.000000
49.101684 1307.000000
49.121167 1378.000000
49.140649 1373.000000
49.160131 1329.000000
49.179614 1267.000000
49.199096 1371.000000
49.218578 1349.000000
49.238061 1330.000000
49.257543 1355.000000
49.277026 1286.000000
49.296508 1326.000000
49.315990 1349.000000
49.335473 1300.000000
49.354955 1392.000000
49.374437 1340.000000
49.393920 1381.000000
49.413402 1363.000000
49.432885 1376.000000
49.452367 1381.000000
49.471849 1322.000000
49.491332 1383.000000
49.510814 1303.000000
49.530296 1360.000000
49.549779 1408.000000
49.569261 1351.000000
49.588743 1373.000000
49.608226 1331.000000
49.627708 1391.000000
49.647191 1361.000000
49.666673 1278.000000
49.686155 1332.000000
49.705638 1407.000000
49.725120 1311.000000
49.744602 1365.000000
49.764085 1347.000000
49.783567 1291.000000
49.803050 1274.000000
49.822532 1322.000000
49.842014 1379.000000
49.861497 1371.000000
49.880979 1338.000000
49.900461 1336.000000
49.919944 1332.000000
49.939426 1277.000000
49.958908 1305.000000
49.978391 1354.000000
49.997873 1384.000000
50.017356 1414.000000
50.036838 1348.000000
50.056320 1238.000000
50.075803 1297.000000
50.095285 1336.000000
50.114767 1373.000000
50.134250 1328.000000
50.153732 1328.000000
50.173215 1319.000000
50.192697 1418.000000
50.212179 1309.000000
50.231662 1326.000000
50.251144 1403.000000
50.270626 1374.000000
50.290109 1349.000000
50.309591 1396.000000
50.329074 1326.000000
50.348556 1307.000000
50.368038 1372.000000
50.387521 1364.000000
50.407003 1301.000000
50.426485 1359.000000
50.445968 1378.000000
50.465450 1347.000000
50.484932 1339.000000
50.504415 1312.000000
50.523897 1377.000000
50.543380 1332.000000
50.562862 1266.000000
50.582344 1340.000000
50.601827 1357.000000
50.621309 1364.000000
50.640791 1276.000000
50.660274 1260.000000
50.679756 1307.000000
50.699239 1305.000000
50.718721 1340.000000
50.738203 1298.000000
50.757686 1370.000000
50.777168 1323.000000
50.796650 1316.000000
50.816133 1274.000000
50.835615 1326.000000
50.855097 1326.000000
50.874580 1334.000000
50.894062 1309.000000
50.913545 1320.000000
50.933027 1292.000000
50.952509 1381.000000
50.971992 1385.000000
50.991474 1313.000000
51.010956 1327.000000
51.030439 1387.000000
51.049921 1266.000000
51.069404 1335.000000
51.088886 1329.000000
51.108368 1348.000000
51.127851 1318.000000
51.147333 1343.000000
51.166815 1297.000000
51.186298 1303.000000
51.205780 1314.000000
51.225262 1350.000000
51.244745 1370.000000
51.264227 1423.000000
51.283710 1366.000000
51.303192 1282.000000
51.322674 1329.000000
51.342157 1323.000000
51.361639 1290.000000
51.381121 1350.000000
51.400604 1350.000000
51.420086 1300.000000
51.439569 1300.000000
51.459051 1344.000000
51.478533 1328.000000
51.498016 1305.000000
51.517498 1315.000000
51.536980 1319.000000
51.556463 1346.000000
51.575945 1310.000000
51.595427 1337.000000
51.614910 1322.000000
51.634392 1282.000000
51.653875 1258.000000
51.673357 1297.000000
51.692839 1293.000000
51.712322 1361.000000
51.731804 1262.000000
51.751286 1303.000000
51.770769 1327.000000
51.790251 1354.000000
51.809734 1308.000000
51.829216 1359.000000
51.848698 1307.000000
51.868181 1357.000000
51.887663 1377.000000
51.907145 1283.000000
51.926628 1303.000000
51.946110 1424.000000
51.965593 1297.000000
51.985075 1360.000000
52.004557 1347.000000
52.024040 1401.000000
52.043522 1318.000000
52.063004 1297.000000
52.082487 1342.000000
52.101969 1358.000000
52.121451 1349.000000
52.140934 1321.000000
52.160416 1317.000000
52.179899 1337.000000
52.199381 1350.000000
52.218863 1349.000000
52.238346 1301.000000
52.257828 1296.000000
52.277310 1381.000000
52.296793 1369.000000
52.316275 1331.000000
52.335758 1352.000000
52.355240 1364.000000
52.374722 1310.000000
52.394205 1229.000000
52.413687 1429.000000
52.433169 1324.000000
52.452652 1302.000000
52.472134 1383.000000
52.491616 1305.000000
52.511099 1409.000000
52.530581 1374.000000
52.550064 1374.000000
52.569546 1356.000000
52.589028 1351.000000
52.608511 1346.000000
52.627993 1324.000000
52.647475 1330.000000
52.666958 1337.000000
52.686440 1386.000000
52.705923 1297.000000
52.725405 1349.000000
52.744887 1375.000000
52.764370 1341.000000
52.783852 1358.000000
52.803334 1385.000000
52.822817 1334.000000
52.842299 1353.000000
52.861781 1344.000000
52.881264 1334.000000
52.900746 1336.000000
52.920229 1331.000000
52.939711 1333.000000
52.959193 1352.000000
52.978676 1446.000000
52.998158 1286.000000
53.017640 1305.000000
53.037123 1344.000000
53.056605 1341.000000
53.076088 1395.000000
53.095570 1323.000000
53.115052 1320.000000
53.134535 1339.000000
53.154017 1335.000000
53.173499 1381.000000
53.192982 1331.000000
53.212464 1355.000000
53.231946 1390.000000
53.251429 1306.000000
53.270911 1384.000000
53.290394 1361.000000
53.309876 1382.000000
53.329358 1346.000000
53.348841 1405.000000
53.368323 1482.000000
53.387805 1529.000000
53.407288 1717.000000
53.426770 1726.000000
53.446253 1580.000000
53.465735 1580.000000
53.485217 1439.000000
53.504700 1424.000000
53.524182 1487.000000
53.543664 1514.000000
53.563147 1564.000000
53.582629 1477.000000
53.602112 1462.000000
53.621594 1450.000000
53.641076 1424.000000
53.660559 1417.000000
53.680041 1335.000000
53.699523 1410.000000
53.719006 1335.000000
53.738488 1353.000000
53.757970 1261.000000
53.777453 1398.000000
53.796935 1340.000000
53.816418 1370.000000
53.835900 1406.000000
53.855382 1324.000000
53.874865 1343.000000
53.894347 1367.000000
53.913829 1333.000000
53.933312 1411.000000
53.952794 1329.000000
53.972277 1370.000000
53.991759 1382.000000
54.011241 1338.000000
54.030724 1361.000000
54.050206 1362.000000
54.069688 1397.000000
54.089171 1362.000000
54.108653 1309.000000
54.128135 1399.000000
54.147618 1324.000000
54.167100 1372.000000
54.186583 1386.000000
54.206065 1406.000000
54.225547 1406.000000
54.245030 1354.000000
54.264512 1326.000000
54.283994 1350.000000
54.303477 1284.000000
54.322959 1300.000000
54.342442 1306.000000
54.361924 1361.000000
54.381406 1335.000000
54.400889 1382.000000
54.420371 1373.000000
54.439853 1365.000000
54.459336 1360.000000
54.478818 1360.000000
54.498300 1333.000000
54.517783 1374.000000
54.537265 1320.000000
54.556748 1393.000000
54.576230 1387.000000
54.595712 1343.000000
54.615195 1405.000000
54.634677 1287.000000
54.654159 1347.000000
54.673642 1276.000000
54.693124 1393.000000
54.712607 1305.000000
54.732089 1320.000000
54.751571 1412.000000
54.771054 1389.000000
54.790536 1409.000000
54.810018 1281.000000
54.829501 1363.000000
54.848983 1441.000000
54.868465 1337.000000
54.887948 1341.000000
54.907430 1333.000000
54.926913 1334.000000
54.946395 1382.000000
54.965877 1397.000000
54.985360 1454.000000
55.004842 1419.000000
55.024324 1379.000000
55.043807 1329.000000
55.063289 1338.000000
55.082772 1379.000000
55.102254 1446.000000
55.121736 1378.000000
55.141219 1392.000000
55.160701 1400.000000
55.180183 1390.000000
55.199666 1410.000000
55.219148 1364.000000
55.238630 1311.000000
55.258113 1337.000000
55.277595 1368.000000
55.297078 1401.000000
55.316560 1365.000000
55.336042 1372.000000
55.355525 1398.000000
55.375007 1371.000000
55.394489 1378.000000
55.413972 1365.000000
55.433454 1321.000000
55.452937 1370.000000
55.472419 1329.000000
55.491901 1384.000000
55.511384 1346.000000
55.530866 1327.000000
55.550348 1357.000000
55.569831 1359.000000
55.589313 1339.000000
55.608796 1328.000000
55.628278 1350.000000
55.647760 1399.000000
55.667243 1340.000000
55.686725 1310.000000
55.706207 1336.000000
55.725690 1324.000000
55.745172 1392.000000
55.764654 1363.000000
55.784137 1341.000000
55.803619 1356.000000
55.823102 1360.000000
55.842584 1395.000000
55.862066 1367.000000
55.881549 1356.000000
55.901031 1363.000000
55.920513 1340.000000
55.939996 1354.000000
55.959478 1408.000000
55.978961 1395.000000
55.998443 1428.000000
56.017925 1408.000000
56.037408 1342.000000
56.056890 1375.000000
56.076372 1326.000000
56.095855 1377.000000
56.115337 1353.000000
56.134819 1405.000000
56.154302 1355.000000
56.173784 1326.000000
56.193267 1422.000000
56.212749 1377.000000
56.232231 1373.000000
56.251714 1380.000000
56.271196 1318.000000
56.290678 1381.000000
56.310161 1389.000000
56.329643 1393.000000
56.349126 1370.000000
56.368608 1354.000000
56.388090 1395.000000
56.407573 1388.000000
56.427055 1352.000000
56.446537 1421.000000
56.466020 1327.000000
56.485502 1430.000000
56.504984 1392.000000
56.524467 1343.000000
56.543949 1448.000000
56.563432 1374.000000
56.582914 1425.000000
56.602396 1381.000000
56.621879 1401.000000
56.641361 1319.000000
56.660843 1391.000000
56.680326 1414.000000
56.699808 1407.000000
56.719291 1419.000000
56.738773 1441.000000
56.758255 1421.000000
56.777738 1450.000000
56.797220 1437.000000
56.816702 1415.000000
56.836185 1419.000000
56.855667 1473.000000
56.875149 1588.000000
56.894632 1726.000000
56.914114 1939.000000
56.933597 2152.000000
56.953079 2088.000000
56.972561 2018.000000
56.992044 1801.000000
57.011526 1595.000000
57.031008 1675.000000
57.050491 1581.000000
57.069973 1716.000000
57.089456 1738.000000
57.108938 1835.000000
57.128420 1812.000000
57.147903 1641.000000
57.167385 1563.000000
57.186867 1482.000000
57.206350 1509.000000
57.225832 1411.000000
57.245315 1450.000000
57.264797 1466.000000
57.284279 1435.000000
57.303762 1458.000000
57.323244 1468.000000
57.342726 1488.000000
57.362209 1453.000000
57.381691 1393.000000
57.401173 1376.000000
57.420656 1370.000000
57.440138 1420.000000
57.459621 1451.000000
57.479103 1425.000000
57.498585 1434.000000
57.518068 1414.000000
57.537550 1395.000000
57.557032 1462.000000
57.576515 1468.000000
57.595997 1350.000000
57.615480 1406.000000
57.634962 1456.000000
57.654444 1380.000000
57.673927 1409.000000
57.693409 1378.000000
57.712891 1423.000000
57.732374 1362.000000
57.751856 1343.000000
57.771338 1404.000000
57.790821 1322.000000
57.810303 1410.000000
57.829786 1353.000000
57.849268 1434.000000
57.868750 1367.000000
57.888233 1431.000000
57.907715 1366.000000
57.927197 1363.000000
57.946680 1359.000000
57.966162 1398.000000
57.985645 1383.000000
58.005127 1352.000000
58.024609 1356.000000
58.044092 1400.000000
58.063574 1339.000000
58.083056 1416.000000
58.102539 1375.000000
58.122021 1385.000000
58.141503 1385.000000
58.160986 1472.000000
58.180468 1388.000000
58.199951 1336.000000
58.219433 1385.000000
58.238915 1412.000000
58.258398 1300.000000
58.277880 1363.000000
58.297362 1373.000000
58.316845 1430.000000
58.336327 1360.000000
58.355810 1314.000000
58.375292 1423.000000
58.394774 1342.000000
58.414257 1420.000000
58.433739 1341.000000
58.453221 1361.000000
58.472704 1361.000000
58.492186 1379.000000
58.511668 1380.000000
58.531151 1440.000000
58.550633 1402.000000
58.570116 1384.000000
58.589598 1349.000000
58.609080 1417.000000
58.628563 1364.000000
58.648045 1359.000000
58.667527 1376.000000
58.687010 1346.000000
58.706492 1341.000000
58.725975 1369.000000
58.745457 1436.000000
58.764939 1362.000000
58.784422 1377.000000
58.803904 1376.000000
58.823386 1372.000000
58.842869 1348.000000
58.862351 1430.000000
58.881834 1388.000000
58.901316 1408.000000
58.920798 1449.000000
58.940281 1368.000000
58.959763 1404.000000
58.979245 1362.000000
58.998728 1329.000000
59.018210 1369.000000
59.037692 1313.000000
59.057175 1415.000000
59.076657 1393.000000
59.096140 1406.000000
59.115622 1376.000000
59.135104 1390.000000
59.154587 1336.000000
59.174069 1447.000000
59.193551 1405.000000
59.213034 1370.000000
59.232516 1492.000000
59.251999 1340.000000
59.271481 1355.000000
59.290963 1344.000000
59.310446 1420.000000
59.329928 1395.000000
59.349410 1366.000000
59.368893 1426.000000
59.388375 1398.000000
59.407857 1359.000000
59.427340 1384.000000
59.446822 1393.000000
59.466305 1409.000000
59.485787 1395.000000
59.505269 1306.000000
59.524752 1355.000000
59.544234 1301.000000
59.563716 1354.000000
59.583199 1309.000000
59.602681 1339.000000
59.622164 1334.000000
59.641646 1388.000000
59.661128 1359.000000
59.680611 1347.000000
59.700093 1409.000000
59.719575 1483.000000
59.739058 1411.000000
59.758540 1379.000000
59.778022 1376.000000
59.797505 1346.000000
59.816987 1352.000000
59.836470 1403.000000
59.855952 1380.000000
59.875434 1437.000000
59.894917 1400.000000
59.914399 1428.000000
59.933881 1339.000000
59.953364 1445.000000
59.972846 1384.000000
59.992329 1417.000000
60.011811 1352.000000
60.031293 1431.000000
60.050776 1340.000000
60.070258 1356.000000
60.089740 1409.000000
60.109223 1369.000000
60.128705 1354.000000
60.148187 1397.000000
60.167670 1385.000000
60.187152 1394.000000
60.206635 1397.000000
60.226117 1384.000000
60.245599 1362.000000
60.265082 1340.000000
60.284564 1334.000000
60.304046 1405.000000
60.323529 1390.000000
60.343011 1345.000000
60.362494 1418.000000
60.381976 1364.000000
60.401458 1390.000000
60.420941 1410.000000
60.440423 1293.000000
60.459905 1363.000000
60.479388 1366.000000
60.498870 1341.000000
60.518352 1409.000000
60.537835 1393.000000
60.557317 1423.000000
60.576800 1364.000000
60.596282 1448.000000
60.615764 1402.000000
60.635247 1350.000000
60.654729 1449.000000
60.674211 1437.000000
60.693694 1429.000000
60.713176 1448.000000
60.732659 1416.000000
60.752141 1317.000000
60.771623 1394.000000
60.791106 1386.000000
60.810588 1416.000000
60.830070 1440.000000
60.849553 1459.000000
60.869035 1434.000000
60.888518 1393.000000
60.908000 1408.000000
60.927482 1436.000000
60.946965 1420.000000
60.966447 1386.000000
60.985929 1380.000000
61.005412 1400.000000
61.024894 1391.000000
61.044376 1470.000000
61.063859 1373.000000
61.083341 1439.000000
61.102824 1354.000000
61.122306 1414.000000
61.141788 1377.000000
61.161271 1345.000000
61.180753 1317.000000
61.200235 1390.000000
61.219718 1412.000000
61.239200 1395.000000
61.258683 1388.000000
61.278165 1401.000000
61.297647 1397.000000
61.317130 1346.000000
61.336612 1408.000000
61.356094 1413.000000
61.375577 1450.000000
61.395059 1449.000000
61.414541 1361.000000
61.434024 1354.000000
61.453506 1458.000000
61.472989 1387.000000
61.492471 1340.000000
61.511953 1380.000000
61.531436 1338.000000
61.550918 1416.000000
61.570400 1355.000000
61.589883 1450.000000
61.609365 1393.000000
61.628848 1425.000000
61.648330 1340.000000
61.667812 1410.000000
61.687295 1428.000000
61.706777 1388.000000
61.726259 1348.000000
61.745742 1316.000000
61.765224 1389.000000
61.784706 1403.000000
61.804189 1400.000000
61.823671 1384.000000
61.843154 1405.000000
61.862636 1402.000000
61.882118 1403.000000
61.901601 1361.000000
61.921083 1401.000000
61.940565 1448.000000
61.960048 1350.000000
61.979530 1350.000000
61.999013 1379.000000
62.018495 1487.000000
62.037977 1397.000000
62.057460 1352.000000
62.076942 1348.000000
62.096424 1428.000000
62.115907 1376.000000
62.135389 1367.000000
62.154871 1422.000000
62.174354 1440.000000
62.193836 1365.000000
62.213319 1366.000000
62.232801 1446.000000
62.252283 1453.000000
62.271766 1354.000000
62.291248 1350.000000
62.310730 1331.000000
62.330213 1400.000000
62.349695 1429.000000
62.369178 1453.000000
62.388660 1456.000000
62.408142 1466.000000
62.427625 1560.000000
62.447107 1629.000000
62.466589 1676.000000
62.486072 1850.000000
62.505554 2040.000000
62.525037 2082.000000
62.544519 1954.000000
62.564001 1910.000000
62.583484 1756.000000
62.602966 1724.000000
62.622448 1641.000000
62.641931 1684.000000
62.661413 1661.000000
62.680895 1704.000000
62.700378 1811.000000
62.719860 1629.000000
62.739343 1623.000000
62.758825 1585.000000
62.778307 1518.000000
62.797790 1460.000000
62.817272 1400.000000
62.836754 1391.000000
62.856237 1400.000000
62.875719 1429.000000
62.895202 1472.000000
62.914684 1447.000000
62.934166 1397.000000
62.953649 1389.000000
62.973131 1463.000000
62.992613 1414.000000
63.012096 1399.000000
63.031578 1400.000000
63.051060 1407.000000
63.070543 1427.000000
63.090025 1386.000000
63.109508 1413.000000
63.128990 1483.000000
63.148472 1394.000000
63.167955 1370.000000
63.187437 1446.000000
63.206919 1422.000000
63.226402 1369.000000
63.245884 1389.000000
63.265367 1367.000000
63.284849 1423.000000
63.304331 1389.000000
63.323814 1357.000000
63.343296 1398.000000
63.362778 1435.000000
63.382261 1390.000000
63.401743 1421.000000
63.421225 1398.000000
63.440708 1400.000000
63.460190 1424.000000
63.479673 1399.000000
63.499155 1400.000000
63.518637 1352.000000
63.538120 1342.000000
63.557602 1426.000000
63.577084 1453.000000
63.596567 1278.000000
63.616049 1368.000000
63.635532 1383.000000
63.655014 1348.000000
63.674496 1412.000000
63.693979 1354.000000
63.713461 1372.000000
63.732943 1386.000000
63.752426 1398.000000
63.771908 1380.000000
63.791390 1386.000000
63.810873 1417.000000
63.830355 1417.000000
63.849838 1431.000000
63.869320 1370.000000
63.888802 1387.000000
63.908285 1338.000000
63.927767 1348.000000
63.947249 1427.000000
63.966732 1421.000000
63.986214 1426.000000
64.005697 1452.000000
64.025179 1403.000000
64.044661 1332.000000
64.064144 1330.000000
64.083626 1397.000000
64.103108 1428.000000
64.122591 1403.000000
64.142073 1423.000000
64.161556 1398.000000
64.181038 1357.000000
64.200520 1457.000000
64.220003 1446.000000
64.239485 1386.000000
64.258967 1382.000000
64.278450 1401.000000
64.297932 1400.000000
64.317414 1361.000000
64.336897 1401.000000
64.356379 1428.000000
64.375862 1354.000000
64.395344 1413.000000
64.414826 1359.000000
64.434309 1430.000000
64.453791 1384.000000
64.473273 1383.000000
64.492756 1406.000000
64.512238 1405.000000
64.531721 1458.000000
64.551203 1435.000000
64.570685 1384.000000
64.590168 1447.000000
64.609650 1423.000000
64.629132 1402.000000
64.648615 1460.000000
64.668097 1451.000000
64.687579 1384.000000
64.707062 1404.000000
64.726544 1420.000000
64.746027 1423.000000
64.765509 1382.000000
64.784991 1472.000000
64.804474 1390.000000
64.823956 1418.000000
64.843438 1358.000000
64.862921 1363.000000
64.882403 1386.000000
64.901886 1435.000000
64.921368 1387.000000
64.940850 1451.000000
64.960333 1412.000000
64.979815 1398.000000
64.999297 1402.000000
65.018780 1411.000000
65.038262 1401.000000
65.057744 1439.000000
65.077227 1388.000000
65.096709 1291.000000
65.116192 1419.000000
65.135674 1394.000000
65.155156 1418.000000
65.174639 1446.000000
65.194121 1346.000000
65.213603 1393.000000
65.233086 1361.000000
65.252568 1374.000000
65.272051 1425.000000
65.291533 1435.000000
65.311015 1385.000000
65.330498 1410.000000
65.349980 1428.000000
65.369462 1405.000000
65.388945 1419.000000
65.408427 1412.000000
65.427909 1484.000000
65.447392 1447.000000
65.466874 1475.000000
65.486357 1430.000000
65.505839 1393.000000
65.525321 1388.000000
65.544804 1475.000000
65.564286 1404.000000
65.583768 1439.000000
65.603251 1471.000000
65.622733 1454.000000
65.642216 1493.000000
65.661698 1520.000000
65.681180 1610.000000
65.700663 1597.000000
65.720145 1679.000000
65.739627 1649.000000
65.759110 1662.000000
65.778592 1614.000000
65.798075 1574.000000
65.817557 1501.000000
65.837039 1559.000000
65.856522 1511.000000
65.876004 1529.000000
65.895486 1574.000000
65.914969 1538.000000
65.934451 1425.000000
65.953933 1534.000000
65.973416 1468.000000
65.992898 1435.000000
66.012381 1454.000000
66.031863 1503.000000
66.051345 1467.000000
66.070828 1407.000000
66.090310 1486.000000
66.109792 1411.000000
66.129275 1360.000000
66.148757 1385.000000
66.168240 1410.000000
66.187722 1305.000000
66.207204 1449.000000
66.226687 1367.000000
66.246169 1365.000000
66.265651 1379.000000
66.285134 1385.000000
66.304616 1396.000000
66.324098 1339.000000
66.343581 1367.000000
66.363063 1392.000000
66.382546 1424.000000
66.402028 1420.000000
66.421510 1435.000000
66.440993 1467.000000
66.460475 1399.000000
66.479957 1340.000000
66.499440 1330.000000
66.518922 1418.000000
66.538405 1398.000000
66.557887 1418.000000
66.577369 1389.000000
66.596852 1341.000000
66.616334 1394.000000
66.635816 1453.000000
66.655299 1445.000000
66.674781 1437.000000
66.694263 1429.000000
66.713746 1379.000000
66.733228 1424.000000
66.752711 1430.000000
66.772193 1359.000000
66.791675 1401.000000
66.811158 1399.000000
66.830640 1521.000000
66.850122 1413.000000
66.869605 1380.000000
66.889087 1423.000000
66.908570 1335.000000
66.928052 1417.000000
66.947534 1436.000000
66.967017 1397.000000
66.986499 1372.000000
67.005981 1382.000000
67.025464 1405.000000
67.044946 1433.000000
67.064428 1394.000000
67.083911 1397.000000
67.103393 1430.000000
67.122876 1445.000000
67.142358 1404.000000
67.161840 1453.000000
67.181323 1424.000000
67.200805 1471.000000
67.220287 1427.000000
67.239770 1406.000000
67.259252 1420.000000
67.278735 1318.000000
67.298217 1428.000000
67.317699 1444.000000
67.337182 1384.000000
67.356664 1454.000000
67.376146 1369.000000
67.395629 1395.000000
67.415111 1375.000000
67.434593 1411.000000
67.454076 1444.000000
67.473558 1427.000000
67.493041 1455.000000
67.512523 1444.000000
67.532005 1422.000000
67.551488 1391.000000
67.570970 1420.000000
67.590452 1445.000000
67.609935 1445.000000
67.629417 1433.000000
67.648900 1431.000000
67.668382 1408.000000
67.687864 1419.000000
67.707347 1395.000000
67.726829 1437.000000
67.746311 1435.000000
67.765794 1395.000000
67.785276 1409.000000
67.804759 1418.000000
67.824241 1435.000000
67.843723 1355.000000
67.863206 1497.000000
67.882688 1460.000000
67.902170 1332.000000
67.921653 1458.000000
67.941135 1460.000000
67.960617 1397.000000
67.980100 1398.000000
67.999582 1338.000000
68.019065 1333.000000
68.038547 1435.000000
68.058029 1396.000000
68.077512 1388.000000
68.096994 1361.000000
68.116476 1391.000000
68.135959 1404.000000
68.155441 1431.000000
68.174924 1439.000000
68.194406 1396.000000
68.213888 1402.000000
68.233371 1401.000000
68.252853 1453.000000
68.272335 1357.000000
68.291818 1432.000000
68.311300 1344.000000
68.330782 1438.000000
68.350265 1439.000000
68.369747 1438.000000
68.389230 1440.000000
68.408712 1353.000000
68.428194 1441.000000
68.447677 1411.000000
68.467159 1445.000000
68.486641 1460.000000
68.506124 1395.000000
68.525606 1349.000000
68.545089 1463.000000
68.564571 1444.000000
68.584053 1392.000000
68.603536 1392.000000
68.623018 1431.000000
68.642500 1460.000000
68.661983 1408.000000
68.681465 1460.000000
68.700947 1405.000000
68.720430 1413.000000
68.739912 1431.000000
68.759395 1401.000000
68.778877 1347.000000
68.798359 1508.000000
68.817842 1463.000000
68.837324 1467.000000
68.856806 1458.000000
68.876289 1414.000000
68.895771 1432.000000
68.915254 1408.000000
68.934736 1394.000000
68.954218 1413.000000
68.973701 1431.000000
68.993183 1458.000000
69.012665 1374.000000
69.032148 1404.000000
69.051630 1406.000000
69.071112 1330.000000
69.090595 1385.000000
69.110077 1416.000000
69.129560 1423.000000
69.149042 1391.000000
69.168524 1441.000000
69.188007 1391.000000
69.207489 1417.000000
69.226971 1497.000000
69.246454 1434.000000
69.265936 1455.000000
69.285419 1497.000000
69.304901 1442.000000
69.324383 1475.000000
69.343866 1426.000000
69.363348 1379.000000
69.382830 1449.000000
69.402313 1420.000000
69.421795 1410.000000
69.441278 1417.000000
69.460760 1419.000000
69.480242 1431.000000
69.499725 1394.000000
69.519207 1398.000000
69.538689 1341.000000
69.558172 1399.000000
69.577654 1396.000000
69.597136 1375.000000
69.616619 1399.000000
69.636101 1452.000000
69.655584 1400.000000
69.675066 1382.000000
69.694548 1387.000000
69.714031 1467.000000
69.733513 1457.000000
69.752995 1493.000000
69.772478 1441.000000
69.791960 1437.000000
69.811443 1413.000000
69.830925 1486.000000
69.850407 1421.000000
69.869890 1436.000000
69.889372 1409.000000
69.908854 1428.000000
69.928337 1357.000000
69.947819 1485.000000
69.967301 1492.000000
69.986784 1435.000000
70.006266 1380.000000
70.025749 1424.000000
