4.000000 767.000000
4.019482 732.000000
4.038965 715.000000
4.058447 712.000000
4.077929 672.000000
4.097412 669.000000
4.116894 685.000000
4.136377 662.000000
4.155859 661.000000
4.175341 724.000000
4.194824 689.000000
4.214306 628.000000
4.233788 648.000000
4.253271 669.000000
4.272753 637.000000
4.292236 648.000000
4.311718 639.000000
4.331200 587.000000
4.350683 615.000000
4.370165 676.000000
4.389647 630.000000
4.409130 625.000000
4.428612 613.000000
4.448094 607.000000
4.467577 612.000000
4.487059 600.000000
4.506542 584.000000
4.526024 621.000000
4.545506 592.000000
4.564989 605.000000
4.584471 632.000000
4.603953 580.000000
4.623436 580.000000
4.642918 573.000000
4.662401 610.000000
4.681883 561.000000
4.701365 618.000000
4.720848 550.000000
4.740330 591.000000
4.759812 577.000000
4.779295 549.000000
4.798777 542.000000
4.818259 527.000000
4.837742 539.000000
4.857224 579.000000
4.876707 576.000000
4.896189 571.000000
4.915671 586.000000
4.935154 593.000000
4.954636 566.000000
4.974118 525.000000
4.993601 529.000000
5.013083 543.000000
5.032566 581.000000
5.052048 537.000000
5.071530 579.000000
5.091013 530.000000
5.110495 550.000000
5.129977 570.000000
5.149460 569.000000
5.168942 509.000000
5.188425 555.000000
5.207907 562.000000
5.227389 513.000000
5.246872 542.000000
5.266354 556.000000
5.285836 506.000000
5.305319 551.000000
5.324801 535.000000
5.344283 556.000000
5.363766 540.000000
5.383248 551.000000
5.402731 528.000000
5.422213 581.000000
5.441695 508.000000
5.461178 577.000000
5.480660 543.000000
5.500142 556.000000
5.519625 521.000000
5.539107 567.000000
5.558590 548.000000
5.578072 548.000000
5.597554 593.000000
5.617037 579.000000
5.636519 565.000000
5.656001 597.000000
5.675484 583.000000
5.694966 596.000000
5.714448 614.000000
5.733931 607.000000
5.753413 655.000000
5.772896 644.000000
5.792378 642.000000
5.811860 702.000000
5.831343 745.000000
5.850825 765.000000
5.870307 790.000000
5.889790 690.000000
5.909272 693.000000
5.928755 664.000000
5.948237 672.000000
5.967719 588.000000
5.987202 595.000000
6.006684 617.000000
6.026166 630.000000
6.045649 622.000000
6.065131 560.000000
6.084613 537.000000
6.104096 540.000000
6.123578 554.000000
6.143061 546.000000
6.162543 561.000000
6.182025 521.000000
6.201508 543.000000
6.220990 635.000000
6.240472 554.000000
6.259955 543.000000
6.279437 523.000000
6.298920 523.000000
6.318402 498.000000
6.337884 537.000000
6.357367 461.000000
6.376849 510.000000
6.396331 487.000000
6.415814 550.000000
6.435296 497.000000
6.454778 542.000000
6.474261 441.000000
6.493743 536.000000
6.513226 530.000000
6.532708 537.000000
6.552190 512.000000
6.571673 487.000000
6.591155 512.000000
6.610637 530.000000
6.630120 528.000000
6.649602 511.000000
6.669085 486.000000
6.688567 507.000000
6.708049 500.000000
6.727532 453.000000
6.747014 516.000000
6.766496 508.000000
6.785979 501.000000
6.805461 501.000000
6.824944 489.000000
6.844426 529.000000
6.863908 477.000000
6.883391 494.000000
6.902873 481.000000
6.922355 520.000000
6.941838 554.000000
6.961320 516.000000
6.980802 487.000000
7.000285 513.000000
7.019767 492.000000
7.039250 501.000000
7.058732 487.000000
7.078214 498.000000
7.097697 509.000000
7.117179 469.000000
7.136661 481.000000
7.156144 506.000000
7.175626 486.000000
7.195109 525.000000
7.214591 483.000000
7.234073 501.000000
7.253556 487.000000
7.273038 498.000000
7.292520 505.000000
7.312003 501.000000
7.331485 529.000000
7.350967 486.000000
7.370450 517.000000
7.389932 490.000000
7.409415 511.000000
7.428897 509.000000
7.448379 458.000000
7.467862 492.000000
7.487344 481.000000
7.506826 519.000000
7.526309 491.000000
7.545791 484.000000
7.565274 476.000000
7.584756 524.000000
7.604238 446.000000
7.623721 494.000000
7.643203 472.000000
7.662685 450.000000
7.682168 490.000000
7.701650 509.000000
7.721132 483.000000
7.740615 513.000000
7.760097 492.000000
7.779580 437.000000
7.799062 494.000000
7.818544 474.000000
7.838027 506.000000
7.857509 477.000000
7.876991 454.000000
7.896474 462.000000
7.915956 507.000000
7.935439 522.000000
7.954921 452.000000
7.974403 498.000000
7.993886 519.000000
8.013368 478.000000
8.032850 494.000000
8.052333 475.000000
8.071815 471.000000
8.091297 489.000000
8.110780 493.000000
8.130262 501.000000
8.149745 449.000000
8.169227 480.000000
8.188709 534.000000
8.208192 471.000000
8.227674 459.000000
8.247156 468.000000
8.266639 463.000000
8.286121 511.000000
8.305604 510.000000
8.325086 518.000000
8.344568 496.000000
8.364051 491.000000
8.383533 497.000000
8.403015 463.000000
8.422498 469.000000
8.441980 466.000000
8.461463 450.000000
8.480945 480.000000
8.500427 464.000000
8.519910 500.000000
8.539392 468.000000
8.558874 470.000000
8.578357 511.000000
8.597839 494.000000
8.617321 455.000000
8.636804 513.000000
8.656286 500.000000
8.675769 478.000000
8.695251 516.000000
8.714733 459.000000
8.734216 464.000000
8.753698 479.000000
8.773180 462.000000
8.792663 499.000000
8.812145 477.000000
8.831628 495.000000
8.851110 493.000000
8.870592 466.000000
8.890075 451.000000
8.909557 491.000000
8.929039 489.000000
8.948522 496.000000
8.968004 474.000000
8.987486 488.000000
9.006969 453.000000
9.026451 522.000000
9.045934 460.000000
9.065416 536.000000
9.084898 491.000000
9.104381 473.000000
9.123863 483.000000
9.143345 509.000000
9.162828 500.000000
9.182310 513.000000
9.201793 472.000000
9.221275 459.000000
9.240757 494.000000
9.260240 514.000000
9.279722 495.000000
9.299204 458.000000
9.318687 466.000000
9.338169 509.000000
9.357651 521.000000
9.377134 535.000000
9.396616 601.000000
9.416099 628.000000
9.435581 689.000000
9.455063 687.000000
9.474546 647.000000
9.494028 559.000000
9.513510 514.000000
9.532993 472.000000
9.552475 472.000000
9.571958 504.000000
9.591440 488.000000
9.610922 481.000000
9.630405 499.000000
9.649887 480.000000
9.669369 496.000000
9.688852 435.000000
9.708334 466.000000
9.727816 453.000000
9.747299 460.000000
9.766781 428.000000
9.786264 481.000000
9.805746 489.000000
9.825228 438.000000
9.844711 464.000000
9.864193 502.000000
9.883675 481.000000
9.903158 520.000000
9.922640 488.000000
9.942123 491.000000
9.961605 472.000000
9.981087 444.000000
10.000570 477.000000
10.020052 466.000000
10.039534 516.000000
10.059017 485.000000
10.078499 483.000000
10.097982 506.000000
10.117464 449.000000
10.136946 490.000000
10.156429 465.000000
10.175911 457.000000
10.195393 490.000000
10.214876 497.000000
10.234358 440.000000
10.253840 481.000000
10.273323 499.000000
10.292805 509.000000
10.312288 464.000000
10.331770 475.000000
10.351252 502.000000
10.370735 525.000000
10.390217 503.000000
10.409699 468.000000
10.429182 529.000000
10.448664 474.000000
10.468147 501.000000
10.487629 478.000000
10.507111 492.000000
10.526594 477.000000
10.546076 477.000000
10.565558 465.000000
10.585041 474.000000
10.604523 456.000000
10.624005 494.000000
10.643488 515.000000
10.662970 473.000000
10.682453 497.000000
10.701935 467.000000
10.721417 493.000000
10.740900 450.000000
10.760382 482.000000
10.779864 502.000000
10.799347 511.000000
10.818829 461.000000
10.838312 459.000000
10.857794 503.000000
10.877276 479.000000
10.896759 488.000000
10.916241 498.000000
10.935723 494.000000
10.955206 440.000000
10.974688 499.000000
10.994170 522.000000
11.013653 477.000000
11.033135 480.000000
11.052618 494.000000
11.072100 462.000000
11.091582 451.000000
11.111065 473.000000
11.130547 477.000000
11.150029 493.000000
11.169512 480.000000
11.188994 537.000000
11.208477 465.000000
11.227959 459.000000
11.247441 446.000000
11.266924 459.000000
11.286406 420.000000
11.305888 473.000000
11.325371 469.000000
11.344853 450.000000
11.364335 493.000000
11.383818 451.000000
11.403300 474.000000
11.422783 465.000000
11.442265 488.000000
11.461747 439.000000
11.481230 495.000000
11.500712 491.000000
11.520194 474.000000
11.539677 510.000000
11.559159 459.000000
11.578642 495.000000
11.598124 499.000000
11.617606 476.000000
11.637089 504.000000
11.656571 480.000000
11.676053 547.000000
11.695536 509.000000
11.715018 511.000000
11.734500 477.000000
11.753983 455.000000
11.773465 514.000000
11.792948 465.000000
11.812430 462.000000
11.831912 488.000000
11.851395 473.000000
11.870877 453.000000
11.890359 489.000000
11.909842 489.000000
11.929324 497.000000
11.948807 449.000000
11.968289 491.000000
11.987771 487.000000
12.007254 471.000000
12.026736 473.000000
12.046218 503.000000
12.065701 462.000000
12.085183 463.000000
12.104666 461.000000
12.124148 485.000000
12.143630 522.000000
12.163113 490.000000
12.182595 512.000000
12.202077 493.000000
12.221560 482.000000
12.241042 471.000000
12.260524 509.000000
12.280007 520.000000
12.299489 496.000000
12.318972 486.000000
12.338454 523.000000
12.357936 523.000000
12.377419 525.000000
12.396901 518.000000
12.416383 523.000000
12.435866 510.000000
12.455348 583.000000
12.474831 570.000000
12.494313 512.000000
12.513795 532.000000
12.533278 495.000000
12.552760 489.000000
12.572242 532.000000
12.591725 502.000000
12.611207 509.000000
12.630689 475.000000
12.650172 443.000000
12.669654 507.000000
12.689137 515.000000
12.708619 493.000000
12.728101 474.000000
12.747584 472.000000
12.767066 486.000000
12.786548 495.000000
12.806031 465.000000
12.825513 488.000000
12.844996 471.000000
12.864478 440.000000
12.883960 489.000000
12.903443 445.000000
12.922925 466.000000
12.942407 484.000000
12.961890 477.000000
12.981372 529.000000
13.000854 489.000000
13.020337 469.000000
13.039819 471.000000
13.059302 470.000000
13.078784 473.000000
13.098266 481.000000
13.117749 453.000000
13.137231 490.000000
13.156713 459.000000
13.176196 470.000000
13.195678 473.000000
13.215161 493.000000
13.234643 439.000000
13.254125 462.000000
13.273608 420.000000
13.293090 446.000000
13.312572 436.000000
13.332055 465.000000
13.351537 469.000000
13.371019 468.000000
13.390502 515.000000
13.409984 487.000000
13.429467 491.000000
13.448949 445.000000
13.468431 497.000000
13.487914 483.000000
13.507396 484.000000
13.526878 503.000000
13.546361 469.000000
13.565843 469.000000
13.585326 451.000000
13.604808 467.000000
13.624290 457.000000
13.643773 482.000000
13.663255 422.000000
13.682737 469.000000
13.702220 494.000000
13.721702 483.000000
13.741185 487.000000
13.760667 461.000000
13.780149 493.000000
13.799632 435.000000
13.819114 456.000000
13.838596 500.000000
13.858079 483.000000
13.877561 455.000000
13.897043 429.000000
13.916526 486.000000
13.936008 477.000000
13.955491 505.000000
13.974973 468.000000
13.994455 456.000000
14.013938 486.000000
14.033420 457.000000
14.052902 439.000000
14.072385 484.000000
14.091867 457.000000
14.111350 460.000000
14.130832 486.000000
14.150314 471.000000
14.169797 466.000000
14.189279 466.000000
14.208761 475.000000
14.228244 451.000000
14.247726 512.000000
14.267208 503.000000
14.286691 507.000000
14.306173 470.000000
14.325656 531.000000
14.345138 464.000000
14.364620 478.000000
14.384103 481.000000
14.403585 492.000000
14.423067 438.000000
14.442550 446.000000
14.462032 439.000000
14.481515 467.000000
14.500997 465.000000
14.520479 417.000000
14.539962 465.000000
14.559444 453.000000
14.578926 449.000000
14.598409 449.000000
14.617891 445.000000
14.637373 482.000000
14.656856 469.000000
14.676338 483.000000
14.695821 490.000000
14.715303 476.000000
14.734785 481.000000
14.754268 510.000000
14.773750 452.000000
14.793232 437.000000
14.812715 461.000000
14.832197 482.000000
14.851680 474.000000
14.871162 483.000000
14.890644 507.000000
14.910127 457.000000
14.929609 485.000000
14.949091 440.000000
14.968574 431.000000
14.988056 473.000000
15.007538 463.000000
15.027021 431.000000
15.046503 457.000000
15.065986 465.000000
15.085468 481.000000
15.104950 468.000000
15.124433 452.000000
15.143915 458.000000
15.163397 474.000000
15.182880 454.000000
15.202362 425.000000
15.221845 454.000000
15.241327 462.000000
15.260809 470.000000
15.280292 446.000000
15.299774 489.000000
15.319256 467.000000
15.338739 462.000000
15.358221 454.000000
15.377704 466.000000
15.397186 483.000000
15.416668 483.000000
15.436151 487.000000
15.455633 491.000000
15.475115 487.000000
15.494598 479.000000
15.514080 465.000000
15.533562 498.000000
15.553045 486.000000
15.572527 463.000000
15.592010 444.000000
15.611492 452.000000
15.630974 430.000000
15.650457 453.000000
15.669939 499.000000
15.689421 469.000000
15.708904 485.000000
15.728386 454.000000
15.747869 506.000000
15.767351 458.000000
15.786833 469.000000
15.806316 501.000000
15.825798 458.000000
15.845280 485.000000
15.864763 468.000000
15.884245 486.000000
15.903727 492.000000
15.923210 479.000000
15.942692 474.000000
15.962175 516.000000
15.981657 441.000000
16.001139 468.000000
16.020622 484.000000
16.040104 494.000000
16.059586 482.000000
16.079069 494.000000
16.098551 451.000000
16.118034 489.000000
16.137516 431.000000
16.156998 462.000000
16.176481 534.000000
16.195963 471.000000
16.215445 434.000000
16.234928 469.000000
16.254410 492.000000
16.273892 478.000000
16.293375 458.000000
16.312857 468.000000
16.332340 455.000000
16.351822 485.000000
16.371304 421.000000
16.390787 474.000000
16.410269 480.000000
16.429751 485.000000
16.449234 495.000000
16.468716 447.000000
16.488199 487.000000
16.507681 496.000000
16.527163 471.000000
16.546646 465.000000
16.566128 447.000000
16.585610 432.000000
16.605093 536.000000
16.624575 498.000000
16.644057 442.000000
16.663540 461.000000
16.683022 418.000000
16.702505 484.000000
16.721987 455.000000
16.741469 500.000000
16.760952 429.000000
16.780434 462.000000
16.799916 448.000000
16.819399 449.000000
16.838881 446.000000
16.858364 457.000000
16.877846 477.000000
16.897328 462.000000
16.916811 474.000000
16.936293 480.000000
16.955775 485.000000
16.975258 432.000000
16.994740 447.000000
17.014222 460.000000
17.033705 474.000000
17.053187 455.000000
17.072670 479.000000
17.092152 444.000000
17.111634 488.000000
17.131117 427.000000
17.150599 444.000000
17.170081 515.000000
17.189564 496.000000
17.209046 462.000000
17.228529 486.000000
17.248011 465.000000
17.267493 501.000000
17.286976 444.000000
17.306458 434.000000
17.325940 502.000000
17.345423 473.000000
17.364905 524.000000
17.384388 494.000000
17.403870 477.000000
17.423352 457.000000
17.442835 470.000000
17.462317 466.000000
17.481799 423.000000
17.501282 488.000000
17.520764 501.000000
17.540246 485.000000
17.559729 483.000000
17.579211 547.000000
17.598694 465.000000
17.618176 451.000000
17.637658 451.000000
17.657141 460.000000
17.676623 501.000000
17.696105 479.000000
17.715588 438.000000
17.735070 499.000000
17.754553 479.000000
17.774035 482.000000
17.793517 423.000000
17.813000 471.000000
17.832482 485.000000
17.851964 470.000000
17.871447 440.000000
17.890929 487.000000
17.910411 471.000000
17.929894 486.000000
17.949376 466.000000
17.968859 499.000000
17.988341 498.000000
18.007823 437.000000
18.027306 474.000000
18.046788 472.000000
18.066270 494.000000
18.085753 464.000000
18.105235 502.000000
18.124718 444.000000
18.144200 472.000000
18.163682 468.000000
18.183165 455.000000
18.202647 498.000000
18.222129 534.000000
18.241612 550.000000
18.261094 558.000000
18.280576 567.000000
18.300059 635.000000
18.319541 566.000000
18.339024 547.000000
18.358506 502.000000
18.377988 506.000000
18.397471 485.000000
18.416953 439.000000
18.436435 435.000000
18.455918 490.000000
18.475400 478.000000
18.494883 441.000000
18.514365 468.000000
18.533847 498.000000
18.553330 495.000000
18.572812 461.000000
18.592294 491.000000
18.611777 436.000000
18.631259 510.000000
18.650741 490.000000
18.670224 484.000000
18.689706 500.000000
18.709189 506.000000
18.728671 493.000000
18.748153 523.000000
18.767636 527.000000
18.787118 494.000000
18.806600 511.000000
18.826083 491.000000
18.845565 463.000000
18.865048 473.000000
18.884530 491.000000
18.904012 472.000000
18.923495 448.000000
18.942977 497.000000
18.962459 473.000000
18.981942 504.000000
19.001424 504.000000
19.020907 461.000000
19.040389 486.000000
19.059871 454.000000
19.079354 511.000000
19.098836 463.000000
19.118318 467.000000
19.137801 472.000000
19.157283 487.000000
19.176765 471.000000
19.196248 469.000000
19.215730 448.000000
19.235213 491.000000
19.254695 486.000000
19.274177 480.000000
19.293660 524.000000
19.313142 485.000000
19.332624 481.000000
19.352107 468.000000
19.371589 465.000000
19.391072 467.000000
19.410554 485.000000
19.430036 489.000000
19.449519 498.000000
19.469001 512.000000
19.488483 470.000000
19.507966 459.000000
19.527448 463.000000
19.546930 506.000000
19.566413 474.000000
19.585895 495.000000
19.605378 471.000000
19.624860 483.000000
19.644342 480.000000
19.663825 457.000000
19.683307 485.000000
19.702789 495.000000
19.722272 490.000000
19.741754 447.000000
19.761237 507.000000
19.780719 471.000000
19.800201 464.000000
19.819684 454.000000
19.839166 476.000000
19.858648 498.000000
19.878131 461.000000
19.897613 468.000000
19.917095 468.000000
19.936578 490.000000
19.956060 525.000000
19.975543 468.000000
19.995025 510.000000
20.014507 518.000000
20.033990 443.000000
20.053472 477.000000
20.072954 511.000000
20.092437 479.000000
20.111919 467.000000
20.131402 478.000000
20.150884 513.000000
20.170366 455.000000
20.189849 459.000000
20.209331 495.000000
20.228813 438.000000
20.248296 474.000000
20.267778 483.000000
20.287260 454.000000
20.306743 490.000000
20.326225 472.000000
20.345708 454.000000
20.365190 465.000000
20.384672 451.000000
20.404155 475.000000
20.423637 498.000000
20.443119 464.000000
20.462602 461.000000
20.482084 513.000000
20.501567 496.000000
20.521049 513.000000
20.540531 484.000000
20.560014 478.000000
20.579496 478.000000
20.598978 477.000000
20.618461 479.000000
20.637943 454.000000
20.657426 470.000000
20.676908 435.000000
20.696390 454.000000
20.715873 510.000000
20.735355 463.000000
20.754837 486.000000
20.774320 486.000000
20.793802 512.000000
20.813284 487.000000
20.832767 513.000000
20.852249 511.000000
20.871732 490.000000
20.891214 493.000000
20.910696 511.000000
20.930179 522.000000
20.949661 457.000000
20.969143 493.000000
20.988626 515.000000
21.008108 473.000000
21.027591 445.000000
21.047073 455.000000
21.066555 507.000000
21.086038 459.000000
21.105520 527.000000
21.125002 527.000000
21.144485 501.000000
21.163967 467.000000
21.183449 484.000000
21.202932 483.000000
21.222414 486.000000
21.241897 456.000000
21.261379 472.000000
21.280861 462.000000
21.300344 472.000000
21.319826 500.000000
21.339308 492.000000
21.358791 487.000000
21.378273 518.000000
21.397756 481.000000
21.417238 490.000000
21.436720 425.000000
21.456203 479.000000
21.475685 460.000000
21.495167 454.000000
21.514650 450.000000
21.534132 485.000000
21.553614 475.000000
21.573097 475.000000
21.592579 500.000000
21.612062 509.000000
21.631544 478.000000
21.651026 454.000000
21.670509 474.000000
21.689991 448.000000
21.709473 482.000000
21.728956 512.000000
21.748438 480.000000
21.767921 458.000000
21.787403 473.000000
21.806885 463.000000
21.826368 473.000000
21.845850 502.000000
21.865332 496.000000
21.884815 492.000000
21.904297 494.000000
21.923779 489.000000
21.943262 464.000000
21.962744 449.000000
21.982227 429.000000
22.001709 480.000000
22.021191 470.000000
22.040674 479.000000
22.060156 464.000000
22.079638 464.000000
22.099121 488.000000
22.118603 465.000000
22.138086 475.000000
22.157568 494.000000
22.177050 489.000000
22.196533 466.000000
22.216015 454.000000
22.235497 485.000000
22.254980 448.000000
22.274462 451.000000
22.293945 471.000000
22.313427 472.000000
22.332909 474.000000
22.352392 492.000000
22.371874 448.000000
22.391356 473.000000
22.410839 486.000000
22.430321 509.000000
22.449803 482.000000
22.469286 485.000000
22.488768 481.000000
22.508251 506.000000
22.527733 460.000000
22.547215 457.000000
22.566698 494.000000
22.586180 505.000000
22.605662 445.000000
22.625145 474.000000
22.644627 470.000000
22.664110 498.000000
22.683592 478.000000
22.703074 468.000000
22.722557 471.000000
22.742039 470.000000
22.761521 452.000000
22.781004 450.000000
22.800486 485.000000
22.819968 529.000000
22.839451 493.000000
22.858933 476.000000
22.878416 461.000000
22.897898 500.000000
22.917380 466.000000
22.936863 511.000000
22.956345 532.000000
22.975827 476.000000
22.995310 484.000000
23.014792 499.000000
23.034275 498.000000
23.053757 551.000000
23.073239 480.000000
23.092722 469.000000
23.112204 528.000000
23.131686 491.000000
23.151169 483.000000
23.170651 481.000000
23.190133 459.000000
23.209616 458.000000
23.229098 488.000000
23.248581 457.000000
23.268063 490.000000
23.287545 451.000000
23.307028 526.000000
23.326510 470.000000
23.345992 491.000000
23.365475 521.000000
23.384957 480.000000
23.404440 471.000000
23.423922 475.000000
23.443404 488.000000
23.462887 484.000000
23.482369 488.000000
23.501851 477.000000
23.521334 499.000000
23.540816 456.000000
23.560298 458.000000
23.579781 498.000000
23.599263 461.000000
23.618746 491.000000
23.638228 484.000000
23.657710 498.000000
23.677193 454.000000
23.696675 434.000000
23.716157 487.000000
23.735640 461.000000
23.755122 496.000000
23.774605 475.000000
23.794087 440.000000
23.813569 461.000000
23.833052 460.000000
23.852534 440.000000
23.872016 470.000000
23.891499 463.000000
23.910981 465.000000
23.930463 504.000000
23.949946 457.000000
23.969428 475.000000
23.988911 524.000000
24.008393 500.000000
24.027875 475.000000
24.047358 468.000000
24.066840 515.000000
24.086322 504.000000
24.105805 501.000000
24.125287 505.000000
24.144770 493.000000
24.164252 481.000000
24.183734 435.000000
24.203217 520.000000
24.222699 467.000000
24.242181 509.000000
24.261664 444.000000
24.281146 491.000000
24.300629 507.000000
24.320111 491.000000
24.339593 451.000000
24.359076 486.000000
24.378558 470.000000
24.398040 525.000000
24.417523 460.000000
24.437005 503.000000
24.456487 482.000000
24.475970 493.000000
24.495452 501.000000
24.514935 452.000000
24.534417 495.000000
24.553899 503.000000
24.573382 485.000000
24.592864 506.000000
24.612346 487.000000
24.631829 487.000000
24.651311 462.000000
24.670794 516.000000
24.690276 508.000000
24.709758 486.000000
24.729241 463.000000
24.748723 441.000000
24.768205 476.000000
24.787688 474.000000
24.807170 493.000000
24.826652 477.000000
24.846135 508.000000
24.865617 480.000000
24.885100 478.000000
24.904582 505.000000
24.924064 461.000000
24.943547 528.000000
24.963029 461.000000
24.982511 504.000000
25.001994 490.000000
25.021476 508.000000
25.040959 500.000000
25.060441 487.000000
25.079923 567.000000
25.099406 530.000000
25.118888 522.000000
25.138370 500.000000
25.157853 490.000000
25.177335 530.000000
25.196817 462.000000
25.216300 489.000000
25.235782 484.000000
25.255265 505.000000
25.274747 522.000000
25.294229 494.000000
25.313712 505.000000
25.333194 470.000000
25.352676 476.000000
25.372159 471.000000
25.391641 486.000000
25.411124 479.000000
25.430606 497.000000
25.450088 475.000000
25.469571 438.000000
25.489053 524.000000
25.508535 463.000000
25.528018 480.000000
25.547500 474.000000
25.566982 481.000000
25.586465 512.000000
25.605947 492.000000
25.625430 509.000000
25.644912 441.000000
25.664394 470.000000
25.683877 479.000000
25.703359 466.000000
25.722841 463.000000
25.742324 477.000000
25.761806 486.000000
25.781289 480.000000
25.800771 481.000000
25.820253 498.000000
25.839736 463.000000
25.859218 460.000000
25.878700 464.000000
25.898183 477.000000
25.917665 475.000000
25.937148 502.000000
25.956630 471.000000
25.976112 495.000000
25.995595 489.000000
26.015077 432.000000
26.034559 487.000000
26.054042 467.000000
26.073524 496.000000
26.093006 504.000000
26.112489 513.000000
26.131971 433.000000
26.151454 457.000000
26.170936 470.000000
26.190418 509.000000
26.209901 497.000000
26.229383 486.000000
26.248865 508.000000
26.268348 469.000000
26.287830 492.000000
26.307313 520.000000
26.326795 464.000000
26.346277 480.000000
26.365760 465.000000
26.385242 483.000000
26.404724 456.000000
26.424207 515.000000
26.443689 510.000000
26.463171 475.000000
26.482654 506.000000
26.502136 458.000000
26.521619 488.000000
26.541101 488.000000
26.560583 470.000000
26.580066 526.000000
26.599548 505.000000
26.619030 572.000000
26.638513 727.000000
26.657995 692.000000
26.677478 549.000000
26.696960 549.000000
26.716442 624.000000
26.735925 566.000000
26.755407 528.000000
26.774889 527.000000
26.794372 474.000000
26.813854 545.000000
26.833336 489.000000
26.852819 535.000000
26.872301 490.000000
26.891784 486.000000
26.911266 496.000000
26.930748 503.000000
26.950231 532.000000
26.969713 503.000000
26.989195 450.000000
27.008678 485.000000
27.028160 417.000000
27.047643 465.000000
27.067125 512.000000
27.086607 504.000000
27.106090 462.000000
27.125572 507.000000
27.145054 482.000000
27.164537 485.000000
27.184019 498.000000
27.203501 523.000000
27.222984 504.000000
27.242466 516.000000
27.261949 436.000000
27.281431 491.000000
27.300913 483.000000
27.320396 454.000000
27.339878 490.000000
27.359360 473.000000
27.378843 511.000000
27.398325 475.000000
27.417808 466.000000
27.437290 476.000000
27.456772 480.000000
27.476255 513.000000
27.495737 483.000000
27.515219 414.000000
27.534702 489.000000
27.554184 486.000000
27.573667 457.000000
27.593149 460.000000
27.612631 486.000000
27.632114 446.000000
27.651596 446.000000
27.671078 475.000000
27.690561 522.000000
27.710043 497.000000
27.729525 450.000000
27.749008 483.000000
27.768490 503.000000
27.787973 458.000000
27.807455 499.000000
27.826937 459.000000
27.846420 472.000000
27.865902 491.000000
27.885384 476.000000
27.904867 504.000000
27.924349 490.000000
27.943832 488.000000
27.963314 504.000000
27.982796 481.000000
28.002279 484.000000
28.021761 513.000000
28.041243 499.000000
28.060726 456.000000
28.080208 515.000000
28.099690 513.000000
28.119173 512.000000
28.138655 491.000000
28.158138 504.000000
28.177620 532.000000
28.197102 516.000000
28.216585 467.000000
28.236067 524.000000
28.255549 507.000000
28.275032 489.000000
28.294514 485.000000
28.313997 505.000000
28.333479 515.000000
28.352961 483.000000
28.372444 500.000000
28.391926 471.000000
28.411408 498.000000
28.430891 515.000000
28.450373 487.000000
28.469855 475.000000
28.489338 503.000000
28.508820 543.000000
28.528303 525.000000
28.547785 519.000000
28.567267 544.000000
28.586750 592.000000
28.606232 575.000000
28.625714 541.000000
28.645197 518.000000
28.664679 548.000000
28.684162 566.000000
28.703644 524.000000
28.723126 482.000000
28.742609 513.000000
28.762091 541.000000
28.781573 537.000000
28.801056 491.000000
28.820538 491.000000
28.840020 522.000000
28.859503 523.000000
28.878985 504.000000
28.898468 505.000000
28.917950 470.000000
28.937432 474.000000
28.956915 499.000000
28.976397 470.000000
28.995879 487.000000
29.015362 504.000000
29.034844 518.000000
29.054327 523.000000
29.073809 510.000000
29.093291 484.000000
29.112774 458.000000
29.132256 489.000000
29.151738 496.000000
29.171221 474.000000
29.190703 433.000000
29.210185 503.000000
29.229668 516.000000
29.249150 543.000000
29.268633 516.000000
29.288115 516.000000
29.307597 531.000000
29.327080 612.000000
29.346562 683.000000
29.366044 796.000000
29.385527 1091.000000
29.405009 1113.000000
29.424492 995.000000
29.443974 941.000000
29.463456 982.000000
29.482939 881.000000
29.502421 758.000000
29.521903 655.000000
29.541386 605.000000
29.560868 589.000000
29.580351 571.000000
29.599833 537.000000
29.619315 533.000000
29.638798 557.000000
29.658280 509.000000
29.677762 522.000000
29.697245 529.000000
29.716727 560.000000
29.736209 517.000000
29.755692 497.000000
29.775174 516.000000
29.794657 512.000000
29.814139 477.000000
29.833621 499.000000
29.853104 491.000000
29.872586 477.000000
29.892068 490.000000
29.911551 504.000000
29.931033 478.000000
29.950516 518.000000
29.969998 500.000000
29.989480 542.000000
30.008963 611.000000
30.028445 666.000000
30.047927 687.000000
30.067410 731.000000
30.086892 826.000000
30.106374 695.000000
30.125857 699.000000
30.145339 688.000000
30.164822 680.000000
30.184304 583.000000
30.203786 562.000000
30.223269 498.000000
30.242751 507.000000
30.262233 498.000000
30.281716 468.000000
30.301198 515.000000
30.320681 504.000000
30.340163 502.000000
30.359645 451.000000
30.379128 503.000000
30.398610 471.000000
30.418092 483.000000
30.437575 491.000000
30.457057 490.000000
30.476539 474.000000
30.496022 468.000000
30.515504 462.000000
30.534987 475.000000
30.554469 479.000000
30.573951 503.000000
30.593434 513.000000
30.612916 539.000000
30.632398 505.000000
30.651881 466.000000
30.671363 467.000000
30.690846 502.000000
30.710328 525.000000
30.729810 449.000000
30.749293 479.000000
30.768775 485.000000
30.788257 482.000000
30.807740 497.000000
30.827222 505.000000
30.846704 474.000000
30.866187 489.000000
30.885669 481.000000
30.905152 513.000000
30.924634 466.000000
30.944116 486.000000
30.963599 502.000000
30.983081 493.000000
31.002563 502.000000
31.022046 466.000000
31.041528 506.000000
31.061011 492.000000
31.080493 513.000000
31.099975 501.000000
31.119458 502.000000
31.138940 478.000000
31.158422 494.000000
31.177905 485.000000
31.197387 503.000000
31.216870 504.000000
31.236352 535.000000
31.255834 545.000000
31.275317 495.000000
31.294799 473.000000
31.314281 467.000000
31.333764 519.000000
31.353246 494.000000
31.372728 539.000000
31.392211 531.000000
31.411693 547.000000
31.431176 484.000000
31.450658 528.000000
31.470140 509.000000
31.489623 528.000000
31.509105 521.000000
31.528587 530.000000
31.548070 490.000000
31.567552 536.000000
31.587035 493.000000
31.606517 499.000000
31.625999 496.000000
31.645482 499.000000
31.664964 489.000000
31.684446 504.000000
31.703929 482.000000
31.723411 490.000000
31.742893 530.000000
31.762376 491.000000
31.781858 506.000000
31.801341 507.000000
31.820823 501.000000
31.840305 488.000000
31.859788 474.000000
31.879270 551.000000
31.898752 568.000000
31.918235 541.000000
31.937717 505.000000
31.957200 495.000000
31.976682 458.000000
31.996164 526.000000
32.015647 533.000000
32.035129 486.000000
32.054611 533.000000
32.074094 497.000000
32.093576 481.000000
32.113058 485.000000
32.132541 478.000000
32.152023 504.000000
32.171506 491.000000
32.190988 527.000000
32.210470 470.000000
32.229953 528.000000
32.249435 526.000000
32.268917 469.000000
32.288400 485.000000
32.307882 495.000000
32.327365 498.000000
32.346847 494.000000
32.366329 500.000000
32.385812 457.000000
32.405294 477.000000
32.424776 474.000000
32.444259 499.000000
32.463741 490.000000
32.483223 477.000000
32.502706 508.000000
32.522188 561.000000
32.541671 503.000000
32.561153 491.000000
32.580635 492.000000
32.600118 452.000000
32.619600 477.000000
32.639082 499.000000
32.658565 467.000000
32.678047 443.000000
32.697530 503.000000
32.717012 465.000000
32.736494 490.000000
32.755977 455.000000
32.775459 480.000000
32.794941 453.000000
32.814424 481.000000
32.833906 527.000000
32.853389 490.000000
32.872871 503.000000
32.892353 472.000000
32.911836 479.000000
32.931318 489.000000
32.950800 502.000000
32.970283 509.000000
32.989765 524.000000
33.009247 496.000000
33.028730 525.000000
33.048212 507.000000
33.067695 488.000000
33.087177 435.000000
33.106659 506.000000
33.126142 513.000000
33.145624 520.000000
33.165106 538.000000
33.184589 549.000000
33.204071 542.000000
33.223554 680.000000
33.243036 695.000000
33.262518 595.000000
33.282001 563.000000
33.301483 602.000000
33.320965 621.000000
33.340448 540.000000
33.359930 516.000000
33.379412 513.000000
33.398895 532.000000
33.418377 482.000000
33.437860 497.000000
33.457342 508.000000
33.476824 478.000000
33.496307 512.000000
33.515789 488.000000
33.535271 472.000000
33.554754 478.000000
33.574236 477.000000
33.593719 515.000000
33.613201 467.000000
33.632683 471.000000
33.652166 478.000000
33.671648 498.000000
33.691130 475.000000
33.710613 486.000000
33.730095 504.000000
33.749577 496.000000
33.769060 516.000000
33.788542 525.000000
33.808025 499.000000
33.827507 493.000000
33.846989 495.000000
33.866472 526.000000
33.885954 471.000000
33.905436 522.000000
33.924919 483.000000
33.944401 460.000000
33.963884 527.000000
33.983366 546.000000
34.002848 543.000000
34.022331 502.000000
34.041813 452.000000
34.061295 518.000000
34.080778 447.000000
34.100260 539.000000
34.119742 484.000000
34.139225 498.000000
34.158707 491.000000
34.178190 490.000000
34.197672 490.000000
34.217154 496.000000
34.236637 453.000000
34.256119 524.000000
34.275601 530.000000
34.295084 449.000000
34.314566 520.000000
34.334049 518.000000
34.353531 481.000000
34.373013 499.000000
34.392496 483.000000
34.411978 467.000000
34.431460 492.000000
34.450943 528.000000
34.470425 531.000000
34.489908 527.000000
34.509390 509.000000
34.528872 543.000000
34.548355 513.000000
34.567837 513.000000
34.587319 485.000000
34.606802 526.000000
34.626284 476.000000
34.645766 510.000000
34.665249 536.000000
34.684731 527.000000
34.704214 491.000000
34.723696 502.000000
34.743178 484.000000
34.762661 462.000000
34.782143 511.000000
34.801625 537.000000
34.821108 494.000000
34.840590 539.000000
34.860073 486.000000
34.879555 462.000000
34.899037 517.000000
34.918520 502.000000
34.938002 500.000000
34.957484 497.000000
34.976967 511.000000
34.996449 508.000000
35.015931 498.000000
35.035414 479.000000
35.054896 530.000000
35.074379 543.000000
35.093861 501.000000
35.113343 520.000000
35.132826 520.000000
35.152308 506.000000
35.171790 505.000000
35.191273 500.000000
35.210755 561.000000
35.230238 553.000000
35.249720 551.000000
35.269202 564.000000
35.288685 580.000000
35.308167 618.000000
35.327649 607.000000
35.347132 731.000000
35.366614 829.000000
35.386096 1113.000000
35.405579 1550.000000
35.425061 1806.000000
35.444544 1703.000000
35.464026 1356.000000
35.483508 1146.000000
35.502991 1223.000000
35.522473 1311.000000
35.541955 1050.000000
35.561438 847.000000
35.580920 643.000000
35.600403 662.000000
35.619885 602.000000
35.639367 582.000000
35.658850 528.000000
35.678332 585.000000
35.697814 531.000000
35.717297 535.000000
35.736779 496.000000
35.756261 499.000000
35.775744 496.000000
35.795226 488.000000
35.814709 535.000000
35.834191 523.000000
35.853673 511.000000
35.873156 514.000000
35.892638 518.000000
35.912120 542.000000
35.931603 527.000000
35.951085 495.000000
35.970568 479.000000
35.990050 496.000000
36.009532 493.000000
36.029015 558.000000
36.048497 524.000000
36.067979 557.000000
36.087462 550.000000
36.106944 521.000000
36.126426 541.000000
36.145909 495.000000
36.165391 539.000000
36.184874 525.000000
36.204356 470.000000
36.223838 499.000000
36.243321 501.000000
36.262803 474.000000
36.282285 530.000000
36.301768 510.000000
36.321250 465.000000
36.340733 535.000000
36.360215 492.000000
36.379697 494.000000
36.399180 481.000000
36.418662 553.000000
36.438144 451.000000
36.457627 557.000000
36.477109 537.000000
36.496592 570.000000
36.516074 586.000000
36.535556 594.000000
36.555039 525.000000
36.574521 523.000000
36.594003 577.000000
36.613486 549.000000
36.632968 565.000000
36.652450 522.000000
36.671933 549.000000
36.691415 492.000000
36.710898 527.000000
36.730380 546.000000
36.749862 478.000000
36.769345 486.000000
36.788827 526.000000
36.808309 509.000000
36.827792 533.000000
36.847274 499.000000
36.866757 522.000000
36.886239 472.000000
36.905721 523.000000
36.925204 538.000000
36.944686 518.000000
36.964168 549.000000
36.983651 518.000000
37.003133 544.000000
37.022615 570.000000
37.042098 553.000000
37.061580 586.000000
37.081063 538.000000
37.100545 556.000000
37.120027 574.000000
37.139510 553.000000
37.158992 552.000000
37.178474 530.000000
37.197957 502.000000
37.217439 531.000000
37.236922 518.000000
37.256404 513.000000
37.275886 544.000000
37.295369 460.000000
37.314851 522.000000
37.334333 477.000000
37.353816 517.000000
37.373298 516.000000
37.392780 504.000000
37.412263 500.000000
37.431745 526.000000
37.451228 514.000000
37.470710 469.000000
37.490192 493.000000
37.509675 526.000000
37.529157 508.000000
37.548639 515.000000
37.568122 478.000000
37.587604 524.000000
37.607087 521.000000
37.626569 505.000000
37.646051 484.000000
37.665534 528.000000
37.685016 491.000000
37.704498 506.000000
37.723981 500.000000
37.743463 458.000000
37.762945 511.000000
37.782428 487.000000
37.801910 521.000000
37.821393 493.000000
37.840875 519.000000
37.860357 510.000000
37.879840 513.000000
37.899322 518.000000
37.918804 510.000000
37.938287 485.000000
37.957769 494.000000
37.977252 498.000000
37.996734 480.000000
38.016216 500.000000
38.035699 521.000000
38.055181 523.000000
38.074663 539.000000
38.094146 550.000000
38.113628 482.000000
38.133111 520.000000
38.152593 505.000000
38.172075 505.000000
38.191558 495.000000
38.211040 533.000000
38.230522 498.000000
38.250005 493.000000
38.269487 529.000000
38.288969 485.000000
38.308452 527.000000
38.327934 523.000000
38.347417 474.000000
38.366899 474.000000
38.386381 502.000000
38.405864 459.000000
38.425346 476.000000
38.444828 541.000000
38.464311 532.000000
38.483793 478.000000
38.503276 513.000000
38.522758 539.000000
38.542240 485.000000
38.561723 528.000000
38.581205 550.000000
38.600687 509.000000
38.620170 502.000000
38.639652 556.000000
38.659134 491.000000
38.678617 485.000000
38.698099 539.000000
38.717582 510.000000
38.737064 511.000000
38.756546 492.000000
38.776029 508.000000
38.795511 469.000000
38.814993 489.000000
38.834476 533.000000
38.853958 497.000000
38.873441 490.000000
38.892923 524.000000
38.912405 514.000000
38.931888 464.000000
38.951370 450.000000
38.970852 496.000000
38.990335 527.000000
39.009817 494.000000
39.029299 536.000000
39.048782 498.000000
39.068264 514.000000
39.087747 512.000000
39.107229 520.000000
39.126711 509.000000
39.146194 511.000000
39.165676 527.000000
39.185158 517.000000
39.204641 544.000000
39.224123 493.000000
39.243606 531.000000
39.263088 481.000000
39.282570 507.000000
39.302053 466.000000
39.321535 521.000000
39.341017 507.000000
39.360500 542.000000
39.379982 507.000000
39.399464 568.000000
39.418947 574.000000
39.438429 570.000000
39.457912 598.000000
39.477394 559.000000
39.496876 563.000000
39.516359 552.000000
39.535841 553.000000
39.555323 543.000000
39.574806 558.000000
39.594288 498.000000
39.613771 538.000000
39.633253 540.000000
39.652735 567.000000
39.672218 521.000000
39.691700 517.000000
39.711182 513.000000
39.730665 534.000000
39.750147 483.000000
39.769630 508.000000
39.789112 540.000000
39.808594 487.000000
39.828077 523.000000
39.847559 512.000000
39.867041 531.000000
39.886524 487.000000
39.906006 467.000000
39.925488 499.000000
39.944971 519.000000
39.964453 525.000000
39.983936 552.000000
40.003418 507.000000
40.022900 506.000000
40.042383 506.000000
40.061865 496.000000
40.081347 477.000000
40.100830 512.000000
40.120312 477.000000
40.139795 507.000000
40.159277 474.000000
40.178759 524.000000
40.198242 530.000000
40.217724 507.000000
40.237206 484.000000
40.256689 532.000000
40.276171 484.000000
40.295653 496.000000
40.315136 516.000000
40.334618 510.000000
40.354101 511.000000
40.373583 507.000000
40.393065 508.000000
40.412548 494.000000
40.432030 437.000000
40.451512 522.000000
40.470995 517.000000
40.490477 479.000000
40.509960 499.000000
40.529442 510.000000
40.548924 544.000000
40.568407 519.000000
40.587889 511.000000
40.607371 528.000000
40.626854 543.000000
40.646336 505.000000
40.665818 494.000000
40.685301 497.000000
40.704783 477.000000
40.724266 482.000000
40.743748 535.000000
40.763230 501.000000
40.782713 520.000000
40.802195 485.000000
40.821677 522.000000
40.841160 514.000000
40.860642 516.000000
40.880125 519.000000
40.899607 504.000000
40.919089 534.000000
40.938572 528.000000
40.958054 522.000000
40.977536 524.000000
40.997019 528.000000
41.016501 543.000000
41.035983 527.000000
41.055466 525.000000
41.074948 535.000000
41.094431 498.000000
41.113913 530.000000
41.133395 522.000000
41.152878 519.000000
41.172360 474.000000
41.191842 514.000000
41.211325 506.000000
41.230807 535.000000
41.250290 594.000000
41.269772 485.000000
41.289254 506.000000
41.308737 561.000000
41.328219 501.000000
41.347701 498.000000
41.367184 496.000000
41.386666 532.000000
41.406149 490.000000
41.425631 525.000000
41.445113 504.000000
41.464596 491.000000
41.484078 511.000000
41.503560 464.000000
41.523043 519.000000
41.542525 548.000000
41.562007 503.000000
41.581490 507.000000
41.600972 540.000000
41.620455 509.000000
41.639937 489.000000
41.659419 518.000000
41.678902 515.000000
41.698384 466.000000
41.717866 491.000000
41.737349 544.000000
41.756831 497.000000
41.776314 519.000000
41.795796 569.000000
41.815278 520.000000
41.834761 459.000000
41.854243 484.000000
41.873725 545.000000
41.893208 520.000000
41.912690 505.000000
41.932172 533.000000
41.951655 508.000000
41.971137 524.000000
41.990620 525.000000
42.010102 532.000000
42.029584 538.000000
42.049067 520.000000
42.068549 503.000000
42.088031 523.000000
42.107514 525.000000
42.126996 495.000000
42.146479 558.000000
42.165961 513.000000
42.185443 549.000000
42.204926 508.000000
42.224408 518.000000
42.243890 525.000000
42.263373 530.000000
42.282855 482.000000
42.302337 489.000000
42.321820 513.000000
42.341302 512.000000
42.360785 528.000000
42.380267 532.000000
42.399749 496.000000
42.419232 524.000000
42.438714 519.000000
42.458196 525.000000
42.477679 513.000000
42.497161 505.000000
42.516644 532.000000
42.536126 529.000000
42.555608 510.000000
42.575091 510.000000
42.594573 519.000000
42.614055 527.000000
42.633538 534.000000
42.653020 546.000000
42.672502 504.000000
42.691985 521.000000
42.711467 521.000000
42.730950 478.000000
42.750432 535.000000
42.769914 506.000000
42.789397 533.000000
42.808879 531.000000
42.828361 501.000000
42.847844 486.000000
42.867326 521.000000
42.886809 557.000000
42.906291 523.000000
42.925773 549.000000
42.945256 578.000000
42.964738 546.000000
42.984220 578.000000
43.003703 539.000000
43.023185 632.000000
43.042667 650.000000
43.062150 835.000000
43.081632 751.000000
43.101115 647.000000
43.120597 603.000000
43.140079 570.000000
43.159562 621.000000
43.179044 671.000000
43.198526 718.000000
43.218009 635.000000
43.237491 571.000000
43.256974 536.000000
43.276456 579.000000
43.295938 525.000000
43.315421 575.000000
43.334903 538.000000
43.354385 517.000000
43.373868 498.000000
43.393350 520.000000
43.412833 497.000000
43.432315 498.000000
43.451797 502.000000
43.471280 515.000000
43.490762 456.000000
43.510244 536.000000
43.529727 497.000000
43.549209 529.000000
43.568691 517.000000
43.588174 569.000000
43.607656 508.000000
43.627139 506.000000
43.646621 549.000000
43.666103 524.000000
43.685586 533.000000
43.705068 504.000000
43.724550 473.000000
43.744033 560.000000
43.763515 532.000000
43.782998 512.000000
43.802480 546.000000
43.821962 487.000000
43.841445 509.000000
43.860927 530.000000
43.880409 504.000000
43.899892 510.000000
43.919374 519.000000
43.938856 531.000000
43.958339 522.000000
43.977821 518.000000
43.997304 523.000000
44.016786 483.000000
44.036268 518.000000
44.055751 503.000000
44.075233 495.000000
44.094715 492.000000
44.114198 502.000000
44.133680 549.000000
44.153163 470.000000
44.172645 532.000000
44.192127 539.000000
44.211610 537.000000
44.231092 484.000000
44.250574 502.000000
44.270057 518.000000
44.289539 485.000000
44.309021 523.000000
44.328504 530.000000
44.347986 521.000000
44.367469 477.000000
44.386951 446.000000
44.406433 500.000000
44.425916 515.000000
44.445398 503.000000
44.464880 526.000000
44.484363 524.000000
44.503845 521.000000
44.523328 564.000000
44.542810 486.000000
44.562292 512.000000
44.581775 542.000000
44.601257 509.000000
44.620739 538.000000
44.640222 529.000000
44.659704 522.000000
44.679186 534.000000
44.698669 546.000000
44.718151 523.000000
44.737634 545.000000
44.757116 492.000000
44.776598 522.000000
44.796081 512.000000
44.815563 554.000000
44.835045 532.000000
44.854528 505.000000
44.874010 527.000000
44.893493 500.000000
44.912975 519.000000
44.932457 531.000000
44.951940 531.000000
44.971422 524.000000
44.990904 563.000000
45.010387 533.000000
45.029869 547.000000
45.049352 523.000000
45.068834 517.000000
45.088316 519.000000
45.107799 521.000000
45.127281 506.000000
45.146763 508.000000
45.166246 494.000000
45.185728 506.000000
45.205210 502.000000
45.224693 518.000000
45.244175 509.000000
45.263658 545.000000
45.283140 505.000000
45.302622 520.000000
45.322105 552.000000
45.341587 509.000000
45.361069 510.000000
45.380552 488.000000
45.400034 512.000000
45.419517 521.000000
45.438999 513.000000
45.458481 496.000000
45.477964 522.000000
45.497446 545.000000
45.516928 493.000000
45.536411 479.000000
45.555893 511.000000
45.575375 490.000000
45.594858 499.000000
45.614340 534.000000
45.633823 514.000000
45.653305 536.000000
45.672787 526.000000
45.692270 504.000000
45.711752 524.000000
45.731234 497.000000
45.750717 502.000000
45.770199 545.000000
45.789682 492.000000
45.809164 523.000000
45.828646 545.000000
45.848129 459.000000
45.867611 547.000000
45.887093 550.000000
45.906576 497.000000
45.926058 526.000000
45.945540 491.000000
45.965023 497.000000
45.984505 491.000000
46.003988 538.000000
46.023470 543.000000
46.042952 519.000000
46.062435 498.000000
46.081917 502.000000
46.101399 523.000000
46.120882 560.000000
46.140364 517.000000
46.159847 503.000000
46.179329 533.000000
46.198811 485.000000
46.218294 542.000000
46.237776 524.000000
46.257258 536.000000
46.276741 500.000000
46.296223 494.000000
46.315705 502.000000
46.335188 540.000000
46.354670 562.000000
46.374153 516.000000
46.393635 563.000000
46.413117 540.000000
46.432600 590.000000
46.452082 555.000000
46.471564 509.000000
46.491047 527.000000
46.510529 517.000000
46.530012 575.000000
46.549494 508.000000
46.568976 505.000000
46.588459 527.000000
46.607941 542.000000
46.627423 516.000000
46.646906 518.000000
46.666388 527.000000
46.685871 541.000000
46.705353 512.000000
46.724835 545.000000
46.744318 513.000000
46.763800 535.000000
46.783282 511.000000
46.802765 528.000000
46.822247 491.000000
46.841729 523.000000
46.861212 526.000000
46.880694 499.000000
46.900177 498.000000
46.919659 528.000000
46.939141 499.000000
46.958624 511.000000
46.978106 498.000000
46.997588 511.000000
47.017071 496.000000
47.036553 498.000000
47.056036 543.000000
47.075518 527.000000
47.095000 533.000000
47.114483 550.000000
47.133965 519.000000
47.153447 505.000000
47.172930 534.000000
47.192412 535.000000
47.211894 576.000000
47.231377 546.000000
47.250859 565.000000
47.270342 473.000000
47.289824 490.000000
47.309306 509.000000
47.328789 556.000000
47.348271 515.000000
47.367753 555.000000
47.387236 515.000000
47.406718 520.000000
47.426201 524.000000
47.445683 545.000000
47.465165 552.000000
47.484648 548.000000
47.504130 553.000000
47.523612 540.000000
47.543095 580.000000
47.562577 582.000000
47.582059 579.000000
47.601542 553.000000
47.621024 556.000000
47.640507 567.000000
47.659989 554.000000
47.679471 563.000000
47.698954 581.000000
47.718436 534.000000
47.737918 593.000000
47.757401 506.000000
47.776883 554.000000
47.796366 575.000000
47.815848 589.000000
47.835330 485.000000
47.854813 550.000000
47.874295 549.000000
47.893777 488.000000
47.913260 528.000000
47.932742 523.000000
47.952224 549.000000
47.971707 488.000000
47.991189 536.000000
48.010672 514.000000
48.030154 512.000000
48.049636 519.000000
48.069119 540.000000
48.088601 578.000000
48.108083 501.000000
48.127566 546.000000
48.147048 515.000000
48.166531 486.000000
48.186013 543.000000
48.205495 564.000000
48.224978 526.000000
48.244460 519.000000
48.263942 505.000000
48.283425 540.000000
48.302907 496.000000
48.322389 525.000000
48.341872 500.000000
48.361354 482.000000
48.380837 491.000000
48.400319 544.000000
48.419801 550.000000
48.439284 507.000000
48.458766 567.000000
48.478248 637.000000
48.497731 564.000000
48.517213 651.000000
48.536696 598.000000
48.556178 647.000000
48.575660 597.000000
48.595143 624.000000
48.614625 587.000000
48.634107 609.000000
48.653590 623.000000
48.673072 651.000000
48.692555 573.000000
48.712037 571.000000
48.731519 579.000000
48.751002 570.000000
48.770484 565.000000
48.789966 522.000000
48.809449 524.000000
48.828931 551.000000
48.848413 538.000000
48.867896 526.000000
48.887378 485.000000
48.906861 525.000000
48.926343 515.000000
48.945825 515.000000
48.965308 568.000000
48.984790 522.000000
49.004272 533.000000
49.023755 527.000000
49.043237 488.000000
49.062720 536.000000
49.082202 546.000000
49.101684 551.000000
49.121167 505.000000
49.140649 548.000000
49.160131 489.000000
49.179614 563.000000
49.199096 543.000000
49.218578 515.000000
49.238061 545.000000
49.257543 495.000000
49.277026 535.000000
49.296508 530.000000
49.315990 514.000000
49.335473 548.000000
49.354955 535.000000
49.374437 504.000000
49.393920 521.000000
49.413402 541.000000
49.432885 554.000000
49.452367 555.000000
49.471849 523.000000
49.491332 528.000000
49.510814 592.000000
49.530296 544.000000
49.549779 513.000000
49.569261 463.000000
49.588743 523.000000
49.608226 492.000000
49.627708 564.000000
49.647191 539.000000
49.666673 546.000000
49.686155 492.000000
49.705638 555.000000
49.725120 538.000000
49.744602 507.000000
49.764085 523.000000
49.783567 514.000000
49.803050 519.000000
49.822532 517.000000
49.842014 536.000000
49.861497 568.000000
49.880979 593.000000
49.900461 541.000000
49.919944 535.000000
49.939426 509.000000
49.958908 566.000000
49.978391 568.000000
49.997873 560.000000
50.017356 566.000000
50.036838 540.000000
50.056320 549.000000
50.075803 521.000000
50.095285 552.000000
50.114767 513.000000
50.134250 557.000000
50.153732 541.000000
50.173215 533.000000
50.192697 513.000000
50.212179 515.000000
50.231662 534.000000
50.251144 552.000000
50.270626 546.000000
50.290109 530.000000
50.309591 504.000000
50.329074 525.000000
50.348556 499.000000
50.368038 533.000000
50.387521 551.000000
50.407003 557.000000
50.426485 524.000000
50.445968 500.000000
50.465450 508.000000
50.484932 478.000000
50.504415 515.000000
50.523897 510.000000
50.543380 525.000000
50.562862 510.000000
50.582344 540.000000
50.601827 547.000000
50.621309 538.000000
50.640791 520.000000
50.660274 488.000000
50.679756 487.000000
50.699239 545.000000
50.718721 543.000000
50.738203 499.000000
50.757686 562.000000
50.777168 519.000000
50.796650 529.000000
50.816133 546.000000
50.835615 536.000000
50.855097 539.000000
50.874580 482.000000
50.894062 545.000000
50.913545 539.000000
50.933027 529.000000
50.952509 497.000000
50.971992 564.000000
50.991474 539.000000
51.010956 527.000000
51.030439 512.000000
51.049921 511.000000
51.069404 535.000000
51.088886 538.000000
51.108368 559.000000
51.127851 499.000000
51.147333 519.000000
51.166815 513.000000
51.186298 493.000000
51.205780 561.000000
51.225262 547.000000
51.244745 492.000000
51.264227 508.000000
51.283710 518.000000
51.303192 509.000000
51.322674 515.000000
51.342157 519.000000
51.361639 469.000000
51.381121 504.000000
51.400604 531.000000
51.420086 533.000000
51.439569 526.000000
51.459051 567.000000
51.478533 564.000000
51.498016 506.000000
51.517498 573.000000
51.536980 527.000000
51.556463 561.000000
51.575945 556.000000
51.595427 576.000000
51.614910 512.000000
51.634392 514.000000
51.653875 553.000000
51.673357 560.000000
51.692839 539.000000
51.712322 501.000000
51.731804 526.000000
51.751286 516.000000
51.770769 564.000000
51.790251 529.000000
51.809734 548.000000
51.829216 500.000000
51.848698 517.000000
51.868181 534.000000
51.887663 525.000000
51.907145 561.000000
51.926628 569.000000
51.946110 501.000000
51.965593 525.000000
51.985075 502.000000
52.004557 508.000000
52.024040 544.000000
52.043522 538.000000
52.063004 566.000000
52.082487 539.000000
52.101969 512.000000
52.121451 537.000000
52.140934 516.000000
52.160416 530.000000
52.179899 508.000000
52.199381 483.000000
52.218863 515.000000
52.238346 524.000000
52.257828 493.000000
52.277310 531.000000
52.296793 558.000000
52.316275 514.000000
52.335758 517.000000
52.355240 550.000000
52.374722 545.000000
52.394205 527.000000
52.413687 538.000000
52.433169 514.000000
52.452652 533.000000
52.472134 495.000000
52.491616 512.000000
52.511099 528.000000
52.530581 531.000000
52.550064 535.000000
52.569546 543.000000
52.589028 548.000000
52.608511 544.000000
52.627993 523.000000
52.647475 531.000000
52.666958 518.000000
52.686440 553.000000
52.705923 510.000000
52.725405 520.000000
52.744887 560.000000
52.764370 545.000000
52.783852 534.000000
52.803334 506.000000
52.822817 533.000000
52.842299 512.000000
52.861781 528.000000
52.881264 525.000000
52.900746 534.000000
52.920229 520.000000
52.939711 528.000000
52.959193 533.000000
52.978676 484.000000
52.998158 517.000000
53.017640 543.000000
53.037123 515.000000
53.056605 531.000000
53.076088 525.000000
53.095570 518.000000
53.115052 550.000000
53.134535 541.000000
53.154017 524.000000
53.173499 514.000000
53.192982 554.000000
53.212464 555.000000
53.231946 536.000000
53.251429 545.000000
53.270911 512.000000
53.290394 499.000000
53.309876 523.000000
53.329358 581.000000
53.348841 583.000000
53.368323 583.000000
53.387805 595.000000
53.407288 721.000000
53.426770 721.000000
53.446253 627.000000
53.465735 598.000000
53.485217 574.000000
53.504700 583.000000
53.524182 558.000000
53.543664 617.000000
53.563147 629.000000
53.582629 602.000000
53.602112 559.000000
53.621594 559.000000
53.641076 534.000000
53.660559 561.000000
53.680041 561.000000
53.699523 538.000000
53.719006 538.000000
53.738488 538.000000
53.757970 554.000000
53.777453 513.000000
53.796935 576.000000
53.816418 570.000000
53.835900 502.000000
53.855382 549.000000
53.874865 541.000000
53.894347 538.000000
53.913829 499.000000
53.933312 562.000000
53.952794 543.000000
53.972277 550.000000
53.991759 553.000000
54.011241 522.000000
54.030724 537.000000
54.050206 523.000000
54.069688 505.000000
54.089171 575.000000
54.108653 548.000000
54.128135 522.000000
54.147618 541.000000
54.167100 554.000000
54.186583 544.000000
54.206065 562.000000
54.225547 525.000000
54.245030 560.000000
54.264512 527.000000
54.283994 551.000000
54.303477 522.000000
54.322959 582.000000
54.342442 563.000000
54.361924 535.000000
54.381406 535.000000
54.400889 548.000000
54.420371 515.000000
54.439853 548.000000
54.459336 521.000000
54.478818 580.000000
54.498300 534.000000
54.517783 532.000000
54.537265 517.000000
54.556748 543.000000
54.576230 560.000000
54.595712 553.000000
54.615195 548.000000
54.634677 527.000000
54.654159 525.000000
54.673642 526.000000
54.693124 498.000000
54.712607 521.000000
54.732089 547.000000
54.751571 522.000000
54.771054 546.000000
54.790536 521.000000
54.810018 534.000000
54.829501 527.000000
54.848983 535.000000
54.868465 566.000000
54.887948 560.000000
54.907430 515.000000
54.926913 573.000000
54.946395 549.000000
54.965877 510.000000
54.985360 598.000000
55.004842 520.000000
55.024324 566.000000
55.043807 516.000000
55.063289 556.000000
55.082772 501.000000
55.102254 499.000000
55.121736 556.000000
55.141219 532.000000
55.160701 561.000000
55.180183 548.000000
55.199666 540.000000
55.219148 559.000000
55.238630 497.000000
55.258113 503.000000
55.277595 560.000000
55.297078 548.000000
55.316560 563.000000
55.336042 552.000000
55.355525 540.000000
55.375007 502.000000
55.394489 504.000000
55.413972 536.000000
55.433454 517.000000
55.452937 543.000000
55.472419 513.000000
55.491901 528.000000
55.511384 540.000000
55.530866 537.000000
55.550348 533.000000
55.569831 536.000000
55.589313 540.000000
55.608796 493.000000
55.628278 563.000000
55.647760 525.000000
55.667243 549.000000
55.686725 547.000000
55.706207 494.000000
55.725690 546.000000
55.745172 535.000000
55.764654 543.000000
55.784137 522.000000
55.803619 537.000000
55.823102 548.000000
55.842584 534.000000
55.862066 520.000000
55.881549 526.000000
55.901031 559.000000
55.920513 550.000000
55.939996 572.000000
55.959478 519.000000
55.978961 519.000000
55.998443 510.000000
56.017925 503.000000
56.037408 509.000000
56.056890 526.000000
56.076372 506.000000
56.095855 522.000000
56.115337 536.000000
56.134819 576.000000
56.154302 518.000000
56.173784 514.000000
56.193267 579.000000
56.212749 538.000000
56.232231 534.000000
56.251714 490.000000
56.271196 505.000000
56.290678 545.000000
56.310161 541.000000
56.329643 528.000000
56.349126 531.000000
56.368608 551.000000
56.388090 573.000000
56.407573 551.000000
56.427055 496.000000
56.446537 535.000000
56.466020 570.000000
56.485502 543.000000
56.504984 543.000000
56.524467 568.000000
56.543949 516.000000
56.563432 514.000000
56.582914 562.000000
56.602396 581.000000
56.621879 560.000000
56.641361 538.000000
56.660843 578.000000
56.680326 551.000000
56.699808 539.000000
56.719291 565.000000
56.738773 543.000000
56.758255 532.000000
56.777738 572.000000
56.797220 568.000000
56.816702 560.000000
56.836185 607.000000
56.855667 564.000000
56.875149 595.000000
56.894632 716.000000
56.914114 737.000000
56.933597 809.000000
56.953079 920.000000
56.972561 791.000000
56.992044 742.000000
57.011526 631.000000
57.031008 624.000000
57.050491 629.000000
57.069973 649.000000
57.089456 751.000000
57.108938 751.000000
57.128420 731.000000
57.147903 627.000000
57.167385 643.000000
57.186867 631.000000
57.206350 620.000000
57.225832 552.000000
57.245315 545.000000
57.264797 512.000000
57.284279 573.000000
57.303762 589.000000
57.323244 608.000000
57.342726 582.000000
57.362209 552.000000
57.381691 605.000000
57.401173 546.000000
57.420656 561.000000
57.440138 567.000000
57.459621 563.000000
57.479103 520.000000
57.498585 581.000000
57.518068 548.000000
57.537550 560.000000
57.557032 555.000000
57.576515 533.000000
57.595997 566.000000
57.615480 567.000000
57.634962 554.000000
57.654444 550.000000
57.673927 572.000000
57.693409 531.000000
57.712891 515.000000
57.732374 552.000000
57.751856 511.000000
57.771338 538.000000
57.790821 574.000000
57.810303 532.000000
57.829786 584.000000
57.849268 542.000000
57.868750 510.000000
57.888233 536.000000
57.907715 562.000000
57.927197 560.000000
57.946680 544.000000
57.966162 553.000000
57.985645 528.000000
58.005127 573.000000
58.024609 513.000000
58.044092 564.000000
58.063574 533.000000
58.083056 588.000000
58.102539 544.000000
58.122021 532.000000
58.141503 552.000000
58.160986 563.000000
58.180468 545.000000
58.199951 542.000000
58.219433 569.000000
58.238915 561.000000
58.258398 549.000000
58.277880 569.000000
58.297362 536.000000
58.316845 534.000000
58.336327 516.000000
58.355810 549.000000
58.375292 509.000000
58.394774 542.000000
58.414257 571.000000
58.433739 560.000000
58.453221 554.000000
58.472704 560.000000
58.492186 531.000000
58.511668 532.000000
58.531151 536.000000
58.550633 529.000000
58.570116 565.000000
58.589598 546.000000
58.609080 525.000000
58.628563 559.000000
58.648045 550.000000
58.667527 509.000000
58.687010 587.000000
58.706492 565.000000
58.725975 545.000000
58.745457 596.000000
58.764939 559.000000
58.784422 571.000000
58.803904 535.000000
58.823386 543.000000
58.842869 534.000000
58.862351 571.000000
58.881834 545.000000
58.901316 534.000000
58.920798 557.000000
58.940281 508.000000
58.959763 535.000000
58.979245 568.000000
58.998728 563.000000
59.018210 534.000000
59.037692 563.000000
59.057175 580.000000
59.076657 531.000000
59.096140 504.000000
59.115622 549.000000
59.135104 565.000000
59.154587 544.000000
59.174069 501.000000
59.193551 491.000000
59.213034 541.000000
59.232516 534.000000
59.251999 576.000000
59.271481 534.000000
59.290963 552.000000
59.310446 579.000000
59.329928 561.000000
59.349410 524.000000
59.368893 542.000000
59.388375 542.000000
59.407857 580.000000
59.427340 571.000000
59.446822 566.000000
59.466305 485.000000
59.485787 587.000000
59.505269 547.000000
59.524752 515.000000
59.544234 541.000000
59.563716 570.000000
59.583199 533.000000
59.602681 580.000000
59.622164 573.000000
59.641646 551.000000
59.661128 569.000000
59.680611 569.000000
59.700093 496.000000
59.719575 555.000000
59.739058 542.000000
59.758540 512.000000
59.778022 527.000000
59.797505 586.000000
59.816987 565.000000
59.836470 502.000000
59.855952 556.000000
59.875434 565.000000
59.894917 560.000000
59.914399 552.000000
59.933881 551.000000
59.953364 542.000000
59.972846 539.000000
59.992329 527.000000
60.011811 500.000000
60.031293 543.000000
60.050776 535.000000
60.070258 522.000000
60.089740 561.000000
60.109223 549.000000
60.128705 539.000000
60.148187 552.000000
60.167670 555.000000
60.187152 529.000000
60.206635 528.000000
60.226117 563.000000
60.245599 560.000000
60.265082 551.000000
60.284564 551.000000
60.304046 510.000000
60.323529 551.000000
60.343011 592.000000
60.362494 548.000000
60.381976 569.000000
60.401458 590.000000
60.420941 573.000000
60.440423 549.000000
60.459905 542.000000
60.479388 518.000000
60.498870 513.000000
60.518352 548.000000
60.537835 551.000000
60.557317 585.000000
60.576800 575.000000
60.596282 520.000000
60.615764 566.000000
60.635247 532.000000
60.654729 567.000000
60.674211 534.000000
60.693694 561.000000
60.713176 567.000000
60.732659 560.000000
60.752141 571.000000
60.771623 542.000000
60.791106 567.000000
60.810588 516.000000
60.830070 551.000000
60.849553 540.000000
60.869035 591.000000
60.888518 583.000000
60.908000 598.000000
60.927482 564.000000
60.946965 553.000000
60.966447 585.000000
60.985929 591.000000
61.005412 574.000000
61.024894 564.000000
61.044376 587.000000
61.063859 513.000000
61.083341 543.000000
61.102824 591.000000
61.122306 592.000000
61.141788 523.000000
61.161271 581.000000
61.180753 545.000000
61.200235 526.000000
61.219718 555.000000
61.239200 533.000000
61.258683 551.000000
61.278165 588.000000
61.297647 577.000000
61.317130 556.000000
61.336612 569.000000
61.356094 550.000000
61.375577 608.000000
61.395059 556.000000
61.414541 557.000000
61.434024 574.000000
61.453506 556.000000
61.472989 589.000000
61.492471 535.000000
61.511953 528.000000
61.531436 546.000000
61.550918 556.000000
61.570400 565.000000
61.589883 600.000000
61.609365 599.000000
61.628848 539.000000
61.648330 528.000000
61.667812 551.000000
61.687295 548.000000
61.706777 542.000000
61.726259 561.000000
61.745742 575.000000
61.765224 556.000000
61.784706 511.000000
61.804189 523.000000
61.823671 604.000000
61.843154 571.000000
61.862636 556.000000
61.882118 585.000000
61.901601 576.000000
61.921083 541.000000
61.940565 543.000000
61.960048 593.000000
61.979530 538.000000
61.999013 533.000000
62.018495 486.000000
62.037977 537.000000
62.057460 568.000000
62.076942 526.000000
62.096424 504.000000
62.115907 539.000000
62.135389 538.000000
62.154871 552.000000
62.174354 571.000000
62.193836 534.000000
62.213319 556.000000
62.232801 571.000000
62.252283 516.000000
62.271766 575.000000
62.291248 592.000000
62.310730 576.000000
62.330213 592.000000
62.349695 568.000000
62.369178 588.000000
62.388660 548.000000
62.408142 580.000000
62.427625 600.000000
62.447107 613.000000
62.466589 628.000000
62.486072 731.000000
62.505554 758.000000
62.525037 778.000000
62.544519 775.000000
62.564001 755.000000
62.583484 740.000000
62.602966 685.000000
62.622448 636.000000
62.641931 665.000000
62.661413 711.000000
62.680895 682.000000
62.700378 719.000000
62.719860 638.000000
62.739343 678.000000
62.758825 608.000000
62.778307 618.000000
62.797790 575.000000
62.817272 639.000000
62.836754 550.000000
62.856237 618.000000
62.875719 555.000000
62.895202 541.000000
62.914684 567.000000
62.934166 558.000000
62.953649 570.000000
62.973131 534.000000
62.992613 563.000000
63.012096 564.000000
63.031578 534.000000
63.051060 538.000000
63.070543 541.000000
63.090025 598.000000
63.109508 534.000000
63.128990 557.000000
63.148472 571.000000
63.167955 538.000000
63.187437 556.000000
63.206919 571.000000
63.226402 544.000000
63.245884 577.000000
63.265367 551.000000
63.284849 582.000000
63.304331 529.000000
63.323814 578.000000
63.343296 572.000000
63.362778 544.000000
63.382261 571.000000
63.401743 568.000000
63.421225 553.000000
63.440708 562.000000
63.460190 478.000000
63.479673 578.000000
63.499155 540.000000
63.518637 537.000000
63.538120 574.000000
63.557602 514.000000
63.577084 574.000000
63.596567 539.000000
63.616049 569.000000
63.635532 540.000000
63.655014 580.000000
63.674496 574.000000
63.693979 527.000000
63.713461 590.000000
63.732943 523.000000
63.752426 559.000000
63.771908 549.000000
63.791390 592.000000
63.810873 550.000000
63.830355 548.000000
63.849838 533.000000
63.869320 520.000000
63.888802 562.000000
63.908285 580.000000
63.927767 557.000000
63.947249 551.000000
63.966732 544.000000
63.986214 515.000000
64.005697 540.000000
64.025179 570.000000
64.044661 557.000000
64.064144 537.000000
64.083626 580.000000
64.103108 529.000000
64.122591 557.000000
64.142073 535.000000
64.161556 535.000000
64.181038 543.000000
64.200520 577.000000
64.220003 581.000000
64.239485 575.000000
64.258967 574.000000
64.278450 571.000000
64.297932 513.000000
64.317414 594.000000
64.336897 557.000000
64.356379 532.000000
64.375862 536.000000
64.395344 586.000000
64.414826 516.000000
64.434309 580.000000
64.453791 565.000000
64.473273 574.000000
64.492756 517.000000
64.512238 577.000000
64.531721 569.000000
64.551203 575.000000
64.570685 547.000000
64.590168 563.000000
64.609650 548.000000
64.629132 537.000000
64.648615 562.000000
64.668097 548.000000
64.687579 602.000000
64.707062 558.000000
64.726544 593.000000
64.746027 550.000000
64.765509 567.000000
64.784991 560.000000
64.804474 585.000000
64.823956 551.000000
64.843438 536.000000
64.862921 531.000000
64.882403 562.000000
64.901886 536.000000
64.921368 547.000000
64.940850 544.000000
64.960333 580.000000
64.979815 548.000000
64.999297 531.000000
65.018780 558.000000
65.038262 560.000000
65.057744 531.000000
65.077227 553.000000
65.096709 578.000000
65.116192 541.000000
65.135674 564.000000
65.155156 573.000000
65.174639 535.000000
65.194121 554.000000
65.213603 571.000000
65.233086 577.000000
65.252568 528.000000
65.272051 568.000000
65.291533 539.000000
65.311015 584.000000
65.330498 589.000000
65.349980 591.000000
65.369462 533.000000
65.388945 560.000000
65.408427 573.000000
65.427909 534.000000
65.447392 493.000000
65.466874 568.000000
65.486357 557.000000
65.505839 560.000000
65.525321 590.000000
65.544804 581.000000
65.564286 578.000000
65.583768 533.000000
65.603251 581.000000
65.622733 588.000000
65.642216 600.000000
65.661698 590.000000
65.681180 621.000000
65.700663 622.000000
65.720145 652.000000
65.739627 633.000000
65.759110 615.000000
65.778592 617.000000
65.798075 576.000000
65.817557 589.000000
65.837039 582.000000
65.856522 592.000000
65.876004 615.000000
65.895486 614.000000
65.914969 566.000000
65.934451 594.000000
65.953933 634.000000
65.973416 574.000000
65.992898 585.000000
66.012381 574.000000
66.031863 615.000000
66.051345 557.000000
66.070828 591.000000
66.090310 557.000000
66.109792 544.000000
66.129275 577.000000
66.148757 591.000000
66.168240 590.000000
66.187722 543.000000
66.207204 575.000000
66.226687 552.000000
66.246169 535.000000
66.265651 539.000000
66.285134 545.000000
66.304616 548.000000
66.324098 540.000000
66.343581 526.000000
66.363063 544.000000
66.382546 547.000000
66.402028 578.000000
66.421510 540.000000
66.440993 557.000000
66.460475 556.000000
66.479957 566.000000
66.499440 548.000000
66.518922 574.000000
66.538405 530.000000
66.557887 579.000000
66.577369 579.000000
66.596852 546.000000
66.616334 555.000000
66.635816 546.000000
66.655299 609.000000
66.674781 595.000000
66.694263 581.000000
66.713746 565.000000
66.733228 505.000000
66.752711 551.000000
66.772193 561.000000
66.791675 516.000000
66.811158 561.000000
66.830640 555.000000
66.850122 568.000000
66.869605 575.000000
66.889087 522.000000
66.908570 555.000000
66.928052 578.000000
66.947534 536.000000
66.967017 517.000000
66.986499 592.000000
67.005981 571.000000
67.025464 516.000000
67.044946 538.000000
67.064428 617.000000
67.083911 560.000000
67.103393 524.000000
67.122876 541.000000
67.142358 582.000000
67.161840 600.000000
67.181323 517.000000
67.200805 549.000000
67.220287 570.000000
67.239770 557.000000
67.259252 529.000000
67.278735 526.000000
67.298217 557.000000
67.317699 576.000000
67.337182 601.000000
67.356664 583.000000
67.376146 539.000000
67.395629 540.000000
67.415111 542.000000
67.434593 572.000000
67.454076 568.000000
67.473558 572.000000
67.493041 599.000000
67.512523 585.000000
67.532005 507.000000
67.551488 577.000000
67.570970 528.000000
67.590452 575.000000
67.609935 561.000000
67.629417 577.000000
67.648900 533.000000
67.668382 583.000000
67.687864 562.000000
67.707347 529.000000
67.726829 534.000000
67.746311 526.000000
67.765794 576.000000
67.785276 516.000000
67.804759 522.000000
67.824241 501.000000
67.843723 497.000000
67.863206 518.000000
67.882688 576.000000
67.902170 535.000000
67.921653 535.000000
67.941135 525.000000
67.960617 564.000000
67.980100 550.000000
67.999582 510.000000
68.019065 535.000000
68.038547 567.000000
68.058029 523.000000
68.077512 532.000000
68.096994 556.000000
68.116476 555.000000
68.135959 573.000000
68.155441 536.000000
68.174924 541.000000
68.194406 599.000000
68.213888 568.000000
68.233371 521.000000
68.252853 593.000000
68.272335 592.000000
68.291818 592.000000
68.311300 537.000000
68.330782 589.000000
68.350265 615.000000
68.369747 591.000000
68.389230 542.000000
68.408712 569.000000
68.428194 565.000000
68.447677 535.000000
68.467159 596.000000
68.486641 573.000000
68.506124 561.000000
68.525606 541.000000
68.545089 575.000000
68.564571 553.000000
68.584053 553.000000
68.603536 574.000000
68.623018 537.000000
68.642500 522.000000
68.661983 593.000000
68.681465 566.000000
68.700947 574.000000
68.720430 537.000000
68.739912 539.000000
68.759395 561.000000
68.778877 584.000000
68.798359 508.000000
68.817842 504.000000
68.837324 534.000000
68.856806 551.000000
68.876289 574.000000
68.895771 576.000000
68.915254 549.000000
68.934736 533.000000
68.954218 548.000000
68.973701 568.000000
68.993183 551.000000
69.012665 586.000000
69.032148 565.000000
69.051630 612.000000
69.071112 590.000000
69.090595 541.000000
69.110077 550.000000
69.129560 544.000000
69.149042 531.000000
69.168524 540.000000
69.188007 592.000000
69.207489 593.000000
69.226971 523.000000
69.246454 588.000000
69.265936 540.000000
69.285419 551.000000
69.304901 554.000000
69.324383 519.000000
69.343866 503.000000
69.363348 560.000000
69.382830 562.000000
69.402313 600.000000
69.421795 557.000000
69.441278 565.000000
69.460760 581.000000
69.480242 574.000000
69.499725 565.000000
69.519207 583.000000
69.538689 546.000000
69.558172 569.000000
69.577654 557.000000
69.597136 538.000000
69.616619 563.000000
69.636101 558.000000
69.655584 524.000000
69.675066 554.000000
69.694548 557.000000
69.714031 531.000000
69.733513 564.000000
69.752995 551.000000
69.772478 600.000000
69.791960 545.000000
69.811443 624.000000
69.830925 566.000000
69.850407 580.000000
69.869890 584.000000
69.889372 564.000000
69.908854 570.000000
69.928337 541.000000
69.947819 582.000000
69.967301 569.000000
69.986784 550.000000
70.006266 556.000000
70.025749 564.000000
