4.000000 750.000000
4.019482 759.000000
4.038965 768.000000
4.058447 663.000000
4.077929 695.000000
4.097412 686.000000
4.116894 669.000000
4.136377 661.000000
4.155859 699.000000
4.175341 680.000000
4.194824 665.000000
4.214306 678.000000
4.233788 663.000000
4.253271 653.000000
4.272753 649.000000
4.292236 637.000000
4.311718 620.000000
4.331200 659.000000
4.350683 649.000000
4.370165 631.000000
4.389647 655.000000
4.409130 605.000000
4.428612 604.000000
4.448094 611.000000
4.467577 632.000000
4.487059 625.000000
4.506542 631.000000
4.526024 599.000000
4.545506 607.000000
4.564989 599.000000
4.584471 632.000000
4.603953 595.000000
4.623436 583.000000
4.642918 597.000000
4.662401 595.000000
4.681883 600.000000
4.701365 562.000000
4.720848 570.000000
4.740330 535.000000
4.759812 540.000000
4.779295 604.000000
4.798777 559.000000
4.818259 580.000000
4.837742 560.000000
4.857224 579.000000
4.876707 589.000000
4.896189 556.000000
4.915671 604.000000
4.935154 546.000000
4.954636 577.000000
4.974118 572.000000
4.993601 562.000000
5.013083 574.000000
5.032566 560.000000
5.052048 560.000000
5.071530 564.000000
5.091013 571.000000
5.110495 591.000000
5.129977 517.000000
5.149460 537.000000
5.168942 528.000000
5.188425 571.000000
5.207907 587.000000
5.227389 584.000000
5.246872 562.000000
5.266354 545.000000
5.285836 515.000000
5.305319 534.000000
5.324801 540.000000
5.344283 547.000000
5.363766 528.000000
5.383248 534.000000
5.402731 528.000000
5.422213 561.000000
5.441695 544.000000
5.461178 517.000000
5.480660 481.000000
5.500142 521.000000
5.519625 558.000000
5.539107 541.000000
5.558590 561.000000
5.578072 584.000000
5.597554 526.000000
5.617037 600.000000
5.636519 547.000000
5.656001 564.000000
5.675484 606.000000
5.694966 580.000000
5.714448 584.000000
5.733931 624.000000
5.753413 632.000000
5.772896 649.000000
5.792378 678.000000
5.811860 739.000000
5.831343 750.000000
5.850825 773.000000
5.870307 777.000000
5.889790 748.000000
5.909272 706.000000
5.928755 679.000000
5.948237 622.000000
5.967719 638.000000
5.987202 640.000000
6.006684 578.000000
6.026166 620.000000
6.045649 563.000000
6.065131 580.000000
6.084613 543.000000
6.104096 561.000000
6.123578 549.000000
6.143061 603.000000
6.162543 540.000000
6.182025 610.000000
6.201508 548.000000
6.220990 570.000000
6.240472 557.000000
6.259955 544.000000
6.279437 505.000000
6.298920 537.000000
6.318402 554.000000
6.337884 519.000000
6.357367 498.000000
6.376849 499.000000
6.396331 516.000000
6.415814 527.000000
6.435296 558.000000
6.454778 480.000000
6.474261 502.000000
6.493743 484.000000
6.513226 475.000000
6.532708 516.000000
6.552190 511.000000
6.571673 497.000000
6.591155 533.000000
6.610637 479.000000
6.630120 525.000000
6.649602 499.000000
6.669085 479.000000
6.688567 453.000000
6.708049 501.000000
6.727532 497.000000
6.747014 509.000000
6.766496 514.000000
6.785979 523.000000
6.805461 448.000000
6.824944 502.000000
6.844426 456.000000
6.863908 497.000000
6.883391 489.000000
6.902873 503.000000
6.922355 542.000000
6.941838 532.000000
6.961320 517.000000
6.980802 470.000000
7.000285 476.000000
7.019767 468.000000
7.039250 530.000000
7.058732 507.000000
7.078214 491.000000
7.097697 499.000000
7.117179 498.000000
7.136661 480.000000
7.156144 493.000000
7.175626 479.000000
7.195109 488.000000
7.214591 501.000000
7.234073 448.000000
7.253556 460.000000
7.273038 473.000000
7.292520 506.000000
7.312003 504.000000
7.331485 486.000000
7.350967 516.000000
7.370450 497.000000
7.389932 475.000000
7.409415 502.000000
7.428897 478.000000
7.448379 494.000000
7.467862 477.000000
7.487344 503.000000
7.506826 520.000000
7.526309 514.000000
7.545791 451.000000
7.565274 476.000000
7.584756 482.000000
7.604238 491.000000
7.623721 464.000000
7.643203 500.000000
7.662685 457.000000
7.682168 504.000000
7.701650 501.000000
7.721132 482.000000
7.740615 457.000000
7.760097 502.000000
7.779580 496.000000
7.799062 478.000000
7.818544 520.000000
7.838027 493.000000
7.857509 471.000000
7.876991 477.000000
7.896474 474.000000
7.915956 506.000000
7.935439 476.000000
7.954921 502.000000
7.974403 514.000000
7.993886 491.000000
8.013368 489.000000
8.032850 488.000000
8.052333 489.000000
8.071815 491.000000
8.091297 519.000000
8.110780 486.000000
8.130262 476.000000
8.149745 504.000000
8.169227 434.000000
8.188709 478.000000
8.208192 438.000000
8.227674 484.000000
8.247156 502.000000
8.266639 463.000000
8.286121 506.000000
8.305604 476.000000
8.325086 509.000000
8.344568 475.000000
8.364051 452.000000
8.383533 508.000000
8.403015 529.000000
8.422498 471.000000
8.441980 478.000000
8.461463 464.000000
8.480945 484.000000
8.500427 490.000000
8.519910 438.000000
8.539392 453.000000
8.558874 475.000000
8.578357 458.000000
8.597839 482.000000
8.617321 503.000000
8.636804 448.000000
8.656286 464.000000
8.675769 488.000000
8.695251 493.000000
8.714733 494.000000
8.734216 443.000000
8.753698 483.000000
8.773180 492.000000
8.792663 464.000000
8.812145 481.000000
8.831628 458.000000
8.851110 484.000000
8.870592 484.000000
8.890075 524.000000
8.909557 477.000000
8.929039 464.000000
8.948522 495.000000
8.968004 511.000000
8.987486 446.000000
9.006969 495.000000
9.026451 475.000000
9.045934 473.000000
9.065416 501.000000
9.084898 466.000000
9.104381 474.000000
9.123863 474.000000
9.143345 480.000000
9.162828 465.000000
9.182310 501.000000
9.201793 490.000000
9.221275 511.000000
9.240757 497.000000
9.260240 485.000000
9.279722 506.000000
9.299204 480.000000
9.318687 562.000000
9.338169 513.000000
9.357651 486.000000
9.377134 529.000000
9.396616 575.000000
9.416099 577.000000
9.435581 665.000000
9.455063 723.000000
9.474546 685.000000
9.494028 580.000000
9.513510 506.000000
9.532993 512.000000
9.552475 497.000000
9.571958 538.000000
9.591440 514.000000
9.610922 476.000000
9.630405 490.000000
9.649887 465.000000
9.669369 512.000000
9.688852 479.000000
9.708334 497.000000
9.727816 484.000000
9.747299 531.000000
9.766781 495.000000
9.786264 463.000000
9.805746 487.000000
9.825228 443.000000
9.844711 423.000000
9.864193 469.000000
9.883675 505.000000
9.903158 442.000000
9.922640 498.000000
9.942123 486.000000
9.961605 483.000000
9.981087 508.000000
10.000570 506.000000
10.020052 488.000000
10.039534 464.000000
10.059017 464.000000
10.078499 498.000000
10.097982 472.000000
10.117464 434.000000
10.136946 447.000000
10.156429 511.000000
10.175911 452.000000
10.195393 492.000000
10.214876 479.000000
10.234358 507.000000
10.253840 477.000000
10.273323 469.000000
10.292805 501.000000
10.312288 481.000000
10.331770 504.000000
10.351252 474.000000
10.370735 458.000000
10.390217 463.000000
10.409699 476.000000
10.429182 504.000000
10.448664 474.000000
10.468147 481.000000
10.487629 471.000000
10.507111 481.000000
10.526594 490.000000
10.546076 477.000000
10.565558 475.000000
10.585041 487.000000
10.604523 453.000000
10.624005 450.000000
10.643488 498.000000
10.662970 475.000000
10.682453 470.000000
10.701935 472.000000
10.721417 487.000000
10.740900 477.000000
10.760382 456.000000
10.779864 486.000000
10.799347 485.000000
10.818829 480.000000
10.838312 486.000000
10.857794 453.000000
10.877276 464.000000
10.896759 498.000000
10.916241 472.000000
10.935723 464.000000
10.955206 449.000000
10.974688 454.000000
10.994170 455.000000
11.013653 494.000000
11.033135 455.000000
11.052618 470.000000
11.072100 468.000000
11.091582 464.000000
11.111065 419.000000
11.130547 503.000000
11.150029 461.000000
11.169512 488.000000
11.188994 480.000000
11.208477 511.000000
11.227959 472.000000
11.247441 420.000000
11.266924 459.000000
11.286406 452.000000
11.305888 490.000000
11.325371 475.000000
11.344853 490.000000
11.364335 435.000000
11.383818 467.000000
11.403300 490.000000
11.422783 541.000000
11.442265 477.000000
11.461747 493.000000
11.481230 473.000000
11.500712 475.000000
11.520194 488.000000
11.539677 488.000000
11.559159 469.000000
11.578642 492.000000
11.598124 491.000000
11.617606 486.000000
11.637089 472.000000
11.656571 494.000000
11.676053 499.000000
11.695536 466.000000
11.715018 474.000000
11.734500 491.000000
11.753983 499.000000
11.773465 458.000000
11.792948 492.000000
11.812430 453.000000
11.831912 467.000000
11.851395 437.000000
11.870877 489.000000
11.890359 497.000000
11.909842 473.000000
11.929324 490.000000
11.948807 456.000000
11.968289 487.000000
11.987771 438.000000
12.007254 465.000000
12.026736 489.000000
12.046218 496.000000
12.065701 436.000000
12.085183 464.000000
12.104666 477.000000
12.124148 535.000000
12.143630 443.000000
12.163113 483.000000
12.182595 452.000000
12.202077 448.000000
12.221560 498.000000
12.241042 464.000000
12.260524 457.000000
12.280007 487.000000
12.299489 488.000000
12.318972 494.000000
12.338454 508.000000
12.357936 476.000000
12.377419 523.000000
12.396901 502.000000
12.416383 591.000000
12.435866 536.000000
12.455348 651.000000
12.474831 584.000000
12.494313 585.000000
12.513795 544.000000
12.533278 494.000000
12.552760 459.000000
12.572242 519.000000
12.591725 478.000000
12.611207 498.000000
12.630689 448.000000
12.650172 421.000000
12.669654 449.000000
12.689137 478.000000
12.708619 450.000000
12.728101 469.000000
12.747584 462.000000
12.767066 474.000000
12.786548 457.000000
12.806031 461.000000
12.825513 498.000000
12.844996 430.000000
12.864478 502.000000
12.883960 472.000000
12.903443 476.000000
12.922925 499.000000
12.942407 429.000000
12.961890 486.000000
12.981372 498.000000
13.000854 501.000000
13.020337 466.000000
13.039819 475.000000
13.059302 485.000000
13.078784 480.000000
13.098266 501.000000
13.117749 454.000000
13.137231 515.000000
13.156713 451.000000
13.176196 502.000000
13.195678 489.000000
13.215161 511.000000
13.234643 485.000000
13.254125 454.000000
13.273608 449.000000
13.293090 436.000000
13.312572 482.000000
13.332055 436.000000
13.351537 468.000000
13.371019 498.000000
13.390502 455.000000
13.409984 479.000000
13.429467 461.000000
13.448949 458.000000
13.468431 479.000000
13.487914 518.000000
13.507396 451.000000
13.526878 448.000000
13.546361 490.000000
13.565843 476.000000
13.585326 498.000000
13.604808 451.000000
13.624290 453.000000
13.643773 449.000000
13.663255 447.000000
13.682737 457.000000
13.702220 453.000000
13.721702 490.000000
13.741185 491.000000
13.760667 470.000000
13.780149 446.000000
13.799632 466.000000
13.819114 441.000000
13.838596 459.000000
13.858079 464.000000
13.877561 474.000000
13.897043 455.000000
13.916526 480.000000
13.936008 468.000000
13.955491 486.000000
13.974973 437.000000
13.994455 453.000000
14.013938 487.000000
14.033420 467.000000
14.052902 452.000000
14.072385 512.000000
14.091867 428.000000
14.111350 448.000000
14.130832 479.000000
14.150314 475.000000
14.169797 462.000000
14.189279 502.000000
14.208761 475.000000
14.228244 494.000000
14.247726 510.000000
14.267208 471.000000
14.286691 457.000000
14.306173 474.000000
14.325656 461.000000
14.345138 487.000000
14.364620 479.000000
14.384103 492.000000
14.403585 479.000000
14.423067 513.000000
14.442550 483.000000
14.462032 482.000000
14.481515 518.000000
14.500997 491.000000
14.520479 499.000000
14.539962 483.000000
14.559444 456.000000
14.578926 465.000000
14.598409 512.000000
14.617891 467.000000
14.637373 472.000000
14.656856 465.000000
14.676338 497.000000
14.695821 452.000000
14.715303 461.000000
14.734785 499.000000
14.754268 463.000000
14.773750 482.000000
14.793232 466.000000
14.812715 486.000000
14.832197 453.000000
14.851680 468.000000
14.871162 490.000000
14.890644 478.000000
14.910127 502.000000
14.929609 452.000000
14.949091 467.000000
14.968574 502.000000
14.988056 474.000000
15.007538 462.000000
15.027021 503.000000
15.046503 523.000000
15.065986 482.000000
15.085468 475.000000
15.104950 476.000000
15.124433 460.000000
15.143915 459.000000
15.163397 469.000000
15.182880 512.000000
15.202362 479.000000
15.221845 431.000000
15.241327 478.000000
15.260809 443.000000
15.280292 456.000000
15.299774 461.000000
15.319256 486.000000
15.338739 475.000000
15.358221 456.000000
15.377704 507.000000
15.397186 487.000000
15.416668 445.000000
15.436151 448.000000
15.455633 492.000000
15.475115 455.000000
15.494598 488.000000
15.514080 457.000000
15.533562 468.000000
15.553045 483.000000
15.572527 505.000000
15.592010 406.000000
15.611492 473.000000
15.630974 467.000000
15.650457 486.000000
15.669939 483.000000
15.689421 438.000000
15.708904 457.000000
15.728386 490.000000
15.747869 479.000000
15.767351 472.000000
15.786833 441.000000
15.806316 471.000000
15.825798 454.000000
15.845280 467.000000
15.864763 437.000000
15.884245 473.000000
15.903727 470.000000
15.923210 479.000000
15.942692 467.000000
15.962175 458.000000
15.981657 485.000000
16.001139 468.000000
16.020622 473.000000
16.040104 478.000000
16.059586 455.000000
16.079069 461.000000
16.098551 469.000000
16.118034 515.000000
16.137516 478.000000
16.156998 447.000000
16.176481 466.000000
16.195963 479.000000
16.215445 473.000000
16.234928 519.000000
16.254410 466.000000
16.273892 500.000000
16.293375 426.000000
16.312857 476.000000
16.332340 507.000000
16.351822 485.000000
16.371304 458.000000
16.390787 498.000000
16.410269 461.000000
16.429751 463.000000
16.449234 460.000000
16.468716 458.000000
16.488199 492.000000
16.507681 482.000000
16.527163 483.000000
16.546646 469.000000
16.566128 485.000000
16.585610 487.000000
16.605093 450.000000
16.624575 483.000000
16.644057 467.000000
16.663540 474.000000
16.683022 469.000000
16.702505 477.000000
16.721987 518.000000
16.741469 475.000000
16.760952 478.000000
16.780434 482.000000
16.799916 463.000000
16.819399 481.000000
16.838881 488.000000
16.858364 463.000000
16.877846 421.000000
16.897328 486.000000
16.916811 498.000000
16.936293 481.000000
16.955775 498.000000
16.975258 474.000000
16.994740 471.000000
17.014222 448.000000
17.033705 445.000000
17.053187 454.000000
17.072670 495.000000
17.092152 498.000000
17.111634 455.000000
17.131117 465.000000
17.150599 439.000000
17.170081 490.000000
17.189564 481.000000
17.209046 467.000000
17.228529 460.000000
17.248011 442.000000
17.267493 439.000000
17.286976 465.000000
17.306458 485.000000
17.325940 467.000000
17.345423 484.000000
17.364905 473.000000
17.384388 471.000000
17.403870 453.000000
17.423352 457.000000
17.442835 458.000000
17.462317 491.000000
17.481799 461.000000
17.501282 492.000000
17.520764 476.000000
17.540246 457.000000
17.559729 471.000000
17.579211 484.000000
17.598694 440.000000
17.618176 461.000000
17.637658 475.000000
17.657141 439.000000
17.676623 486.000000
17.696105 454.000000
17.715588 471.000000
17.735070 463.000000
17.754553 476.000000
17.774035 469.000000
17.793517 464.000000
17.813000 480.000000
17.832482 490.000000
17.851964 494.000000
17.871447 487.000000
17.890929 490.000000
17.910411 465.000000
17.929894 469.000000
17.949376 495.000000
17.968859 453.000000
17.988341 497.000000
18.007823 473.000000
18.027306 430.000000
18.046788 466.000000
18.066270 500.000000
18.085753 491.000000
18.105235 461.000000
18.124718 445.000000
18.144200 506.000000
18.163682 466.000000
18.183165 455.000000
18.202647 493.000000
18.222129 504.000000
18.241612 520.000000
18.261094 589.000000
18.280576 584.000000
18.300059 554.000000
18.319541 572.000000
18.339024 518.000000
18.358506 543.000000
18.377988 475.000000
18.397471 501.000000
18.416953 504.000000
18.436435 490.000000
18.455918 476.000000
18.475400 458.000000
18.494883 443.000000
18.514365 448.000000
18.533847 480.000000
18.553330 468.000000
18.572812 452.000000
18.592294 452.000000
18.611777 495.000000
18.631259 501.000000
18.650741 463.000000
18.670224 465.000000
18.689706 506.000000
18.709189 528.000000
18.728671 535.000000
18.748153 501.000000
18.767636 516.000000
18.787118 501.000000
18.806600 498.000000
18.826083 481.000000
18.845565 485.000000
18.865048 470.000000
18.884530 450.000000
18.904012 466.000000
18.923495 470.000000
18.942977 476.000000
18.962459 485.000000
18.981942 467.000000
19.001424 467.000000
19.020907 462.000000
19.040389 476.000000
19.059871 473.000000
19.079354 468.000000
19.098836 482.000000
19.118318 491.000000
19.137801 465.000000
19.157283 486.000000
19.176765 459.000000
19.196248 425.000000
19.215730 487.000000
19.235213 488.000000
19.254695 505.000000
19.274177 493.000000
19.293660 479.000000
19.313142 482.000000
19.332624 512.000000
19.352107 458.000000
19.371589 471.000000
19.391072 479.000000
19.410554 486.000000
19.430036 462.000000
19.449519 472.000000
19.469001 479.000000
19.488483 493.000000
19.507966 453.000000
19.527448 501.000000
19.546930 494.000000
19.566413 499.000000
19.585895 472.000000
19.605378 484.000000
19.624860 481.000000
19.644342 506.000000
19.663825 506.000000
19.683307 469.000000
19.702789 492.000000
19.722272 490.000000
19.741754 472.000000
19.761237 466.000000
19.780719 478.000000
19.800201 506.000000
19.819684 468.000000
19.839166 477.000000
19.858648 455.000000
19.878131 454.000000
19.897613 443.000000
19.917095 506.000000
19.936578 463.000000
19.956060 452.000000
19.975543 493.000000
19.995025 471.000000
20.014507 437.000000
20.033990 498.000000
20.053472 473.000000
20.072954 493.000000
20.092437 526.000000
20.111919 476.000000
20.131402 485.000000
20.150884 501.000000
20.170366 496.000000
20.189849 477.000000
20.209331 446.000000
20.228813 497.000000
20.248296 466.000000
20.267778 511.000000
20.287260 433.000000
20.306743 463.000000
20.326225 464.000000
20.345708 477.000000
20.365190 507.000000
20.384672 478.000000
20.404155 464.000000
20.423637 472.000000
20.443119 466.000000
20.462602 451.000000
20.482084 456.000000
20.501567 470.000000
20.521049 469.000000
20.540531 493.000000
20.560014 477.000000
20.579496 446.000000
20.598978 491.000000
20.618461 472.000000
20.637943 489.000000
20.657426 463.000000
20.676908 512.000000
20.696390 498.000000
20.715873 461.000000
20.735355 491.000000
20.754837 465.000000
20.774320 500.000000
20.793802 452.000000
20.813284 497.000000
20.832767 524.000000
20.852249 472.000000
20.871732 476.000000
20.891214 466.000000
20.910696 499.000000
20.930179 492.000000
20.949661 490.000000
20.969143 513.000000
20.988626 480.000000
21.008108 454.000000
21.027591 447.000000
21.047073 488.000000
21.066555 507.000000
21.086038 482.000000
21.105520 493.000000
21.125002 474.000000
21.144485 454.000000
21.163967 499.000000
21.183449 465.000000
21.202932 498.000000
21.222414 446.000000
21.241897 489.000000
21.261379 510.000000
21.280861 455.000000
21.300344 486.000000
21.319826 500.000000
21.339308 456.000000
21.358791 494.000000
21.378273 464.000000
21.397756 456.000000
21.417238 497.000000
21.436720 453.000000
21.456203 477.000000
21.475685 484.000000
21.495167 462.000000
21.514650 494.000000
21.534132 461.000000
21.553614 528.000000
21.573097 500.000000
21.592579 469.000000
21.612062 471.000000
21.631544 474.000000
21.651026 500.000000
21.670509 424.000000
21.689991 517.000000
21.709473 503.000000
21.728956 496.000000
21.748438 496.000000
21.767921 468.000000
21.787403 539.000000
21.806885 473.000000
21.826368 469.000000
21.845850 452.000000
21.865332 473.000000
21.884815 455.000000
21.904297 466.000000
21.923779 467.000000
21.943262 453.000000
21.962744 484.000000
21.982227 489.000000
22.001709 443.000000
22.021191 499.000000
22.040674 420.000000
22.060156 474.000000
22.079638 483.000000
22.099121 463.000000
22.118603 474.000000
22.138086 448.000000
22.157568 477.000000
22.177050 486.000000
22.196533 475.000000
22.216015 491.000000
22.235497 482.000000
22.254980 492.000000
22.274462 449.000000
22.293945 476.000000
22.313427 472.000000
22.332909 550.000000
22.352392 497.000000
22.371874 504.000000
22.391356 495.000000
22.410839 471.000000
22.430321 511.000000
22.449803 456.000000
22.469286 478.000000
22.488768 495.000000
22.508251 460.000000
22.527733 491.000000
22.547215 475.000000
22.566698 493.000000
22.586180 468.000000
22.605662 493.000000
22.625145 502.000000
22.644627 439.000000
22.664110 502.000000
22.683592 481.000000
22.703074 471.000000
22.722557 478.000000
22.742039 484.000000
22.761521 490.000000
22.781004 459.000000
22.800486 498.000000
22.819968 508.000000
22.839451 494.000000
22.858933 427.000000
22.878416 483.000000
22.897898 499.000000
22.917380 455.000000
22.936863 436.000000
22.956345 477.000000
22.975827 511.000000
22.995310 522.000000
23.014792 524.000000
23.034275 465.000000
23.053757 533.000000
23.073239 498.000000
23.092722 490.000000
23.112204 515.000000
23.131686 547.000000
23.151169 472.000000
23.170651 512.000000
23.190133 480.000000
23.209616 461.000000
23.229098 488.000000
23.248581 481.000000
23.268063 454.000000
23.287545 499.000000
23.307028 492.000000
23.326510 432.000000
23.345992 466.000000
23.365475 490.000000
23.384957 514.000000
23.404440 460.000000
23.423922 476.000000
23.443404 474.000000
23.462887 463.000000
23.482369 477.000000
23.501851 552.000000
23.521334 519.000000
23.540816 484.000000
23.560298 473.000000
23.579781 480.000000
23.599263 465.000000
23.618746 468.000000
23.638228 478.000000
23.657710 458.000000
23.677193 474.000000
23.696675 498.000000
23.716157 509.000000
23.735640 474.000000
23.755122 453.000000
23.774605 448.000000
23.794087 448.000000
23.813569 501.000000
23.833052 483.000000
23.852534 522.000000
23.872016 480.000000
23.891499 519.000000
23.910981 452.000000
23.930463 472.000000
23.949946 458.000000
23.969428 504.000000
23.988911 470.000000
24.008393 493.000000
24.027875 439.000000
24.047358 480.000000
24.066840 467.000000
24.086322 506.000000
24.105805 509.000000
24.125287 444.000000
24.144770 483.000000
24.164252 425.000000
24.183734 475.000000
24.203217 504.000000
24.222699 521.000000
24.242181 475.000000
24.261664 470.000000
24.281146 502.000000
24.300629 489.000000
24.320111 496.000000
24.339593 470.000000
24.359076 457.000000
24.378558 499.000000
24.398040 478.000000
24.417523 514.000000
24.437005 492.000000
24.456487 447.000000
24.475970 449.000000
24.495452 497.000000
24.514935 512.000000
24.534417 483.000000
24.553899 493.000000
24.573382 450.000000
24.592864 455.000000
24.612346 504.000000
24.631829 509.000000
24.651311 489.000000
24.670794 508.000000
24.690276 441.000000
24.709758 442.000000
24.729241 459.000000
24.748723 477.000000
24.768205 457.000000
24.787688 483.000000
24.807170 505.000000
24.826652 504.000000
24.846135 517.000000
24.865617 456.000000
24.885100 502.000000
24.904582 506.000000
24.924064 481.000000
24.943547 514.000000
24.963029 510.000000
24.982511 508.000000
25.001994 497.000000
25.021476 501.000000
25.040959 508.000000
25.060441 521.000000
25.079923 510.000000
25.099406 495.000000
25.118888 531.000000
25.138370 476.000000
25.157853 529.000000
25.177335 484.000000
25.196817 465.000000
25.216300 490.000000
25.235782 489.000000
25.255265 481.000000
25.274747 453.000000
25.294229 493.000000
25.313712 492.000000
25.333194 515.000000
25.352676 476.000000
25.372159 513.000000
25.391641 513.000000
25.411124 464.000000
25.430606 492.000000
25.450088 485.000000
25.469571 443.000000
25.489053 478.000000
25.508535 494.000000
25.528018 471.000000
25.547500 516.000000
25.566982 481.000000
25.586465 445.000000
25.605947 438.000000
25.625430 513.000000
25.644912 488.000000
25.664394 493.000000
25.683877 476.000000
25.703359 450.000000
25.722841 491.000000
25.742324 477.000000
25.761806 490.000000
25.781289 494.000000
25.800771 449.000000
25.820253 487.000000
25.839736 500.000000
25.859218 482.000000
25.878700 487.000000
25.898183 493.000000
25.917665 471.000000
25.937148 486.000000
25.956630 492.000000
25.976112 475.000000
25.995595 472.000000
26.015077 491.000000
26.034559 512.000000
26.054042 457.000000
26.073524 498.000000
26.093006 474.000000
26.112489 433.000000
26.131971 475.000000
26.151454 510.000000
26.170936 498.000000
26.190418 501.000000
26.209901 483.000000
26.229383 480.000000
26.248865 461.000000
26.268348 538.000000
26.287830 487.000000
26.307313 480.000000
26.326795 441.000000
26.346277 478.000000
26.365760 463.000000
26.385242 469.000000
26.404724 522.000000
26.424207 515.000000
26.443689 486.000000
26.463171 469.000000
26.482654 449.000000
26.502136 465.000000
26.521619 470.000000
26.541101 467.000000
26.560583 464.000000
26.580066 536.000000
26.599548 524.000000
26.619030 585.000000
26.638513 693.000000
26.657995 664.000000
26.677478 579.000000
26.696960 578.000000
26.716442 592.000000
26.735925 531.000000
26.755407 477.000000
26.774889 495.000000
26.794372 490.000000
26.813854 479.000000
26.833336 475.000000
26.852819 494.000000
26.872301 486.000000
26.891784 483.000000
26.911266 514.000000
26.930748 491.000000
26.950231 481.000000
26.969713 465.000000
26.989195 483.000000
27.008678 448.000000
27.028160 487.000000
27.047643 481.000000
27.067125 487.000000
27.086607 518.000000
27.106090 469.000000
27.125572 474.000000
27.145054 458.000000
27.164537 473.000000
27.184019 443.000000
27.203501 503.000000
27.222984 464.000000
27.242466 494.000000
27.261949 475.000000
27.281431 474.000000
27.300913 482.000000
27.320396 485.000000
27.339878 483.000000
27.359360 455.000000
27.378843 482.000000
27.398325 493.000000
27.417808 505.000000
27.437290 491.000000
27.456772 493.000000
27.476255 499.000000
27.495737 447.000000
27.515219 519.000000
27.534702 474.000000
27.554184 498.000000
27.573667 506.000000
27.593149 497.000000
27.612631 469.000000
27.632114 467.000000
27.651596 447.000000
27.671078 492.000000
27.690561 513.000000
27.710043 491.000000
27.729525 517.000000
27.749008 493.000000
27.768490 495.000000
27.787973 469.000000
27.807455 479.000000
27.826937 503.000000
27.846420 496.000000
27.865902 450.000000
27.885384 458.000000
27.904867 459.000000
27.924349 519.000000
27.943832 457.000000
27.963314 461.000000
27.982796 499.000000
28.002279 469.000000
28.021761 487.000000
28.041243 463.000000
28.060726 449.000000
28.080208 483.000000
28.099690 497.000000
28.119173 476.000000
28.138655 527.000000
28.158138 494.000000
28.177620 428.000000
28.197102 537.000000
28.216585 490.000000
28.236067 501.000000
28.255549 472.000000
28.275032 496.000000
28.294514 484.000000
28.313997 494.000000
28.333479 506.000000
28.352961 506.000000
28.372444 502.000000
28.391926 508.000000
28.411408 508.000000
28.430891 500.000000
28.450373 507.000000
28.469855 506.000000
28.489338 514.000000
28.508820 495.000000
28.528303 528.000000
28.547785 556.000000
28.567267 544.000000
28.586750 550.000000
28.606232 552.000000
28.625714 575.000000
28.645197 524.000000
28.664679 542.000000
28.684162 553.000000
28.703644 589.000000
28.723126 526.000000
28.742609 511.000000
28.762091 547.000000
28.781573 486.000000
28.801056 483.000000
28.820538 468.000000
28.840020 488.000000
28.859503 530.000000
28.878985 508.000000
28.898468 505.000000
28.917950 500.000000
28.937432 437.000000
28.956915 479.000000
28.976397 495.000000
28.995879 482.000000
29.015362 475.000000
29.034844 493.000000
29.054327 477.000000
29.073809 500.000000
29.093291 466.000000
29.112774 519.000000
29.132256 441.000000
29.151738 476.000000
29.171221 496.000000
29.190703 504.000000
29.210185 482.000000
29.229668 511.000000
29.249150 496.000000
29.268633 500.000000
29.288115 540.000000
29.307597 538.000000
29.327080 549.000000
29.346562 726.000000
29.366044 865.000000
29.385527 1096.000000
29.405009 1143.000000
29.424492 1010.000000
29.443974 932.000000
29.463456 996.000000
29.482939 954.000000
29.502421 758.000000
29.521903 588.000000
29.541386 600.000000
29.560868 511.000000
29.580351 543.000000
29.599833 493.000000
29.619315 539.000000
29.638798 494.000000
29.658280 554.000000
29.677762 529.000000
29.697245 487.000000
29.716727 503.000000
29.736209 460.000000
29.755692 515.000000
29.775174 523.000000
29.794657 487.000000
29.814139 483.000000
29.833621 518.000000
29.853104 533.000000
29.872586 515.000000
29.892068 508.000000
29.911551 500.000000
29.931033 535.000000
29.950516 540.000000
29.969998 559.000000
29.989480 492.000000
30.008963 568.000000
30.028445 624.000000
30.047927 669.000000
30.067410 773.000000
30.086892 808.000000
30.106374 716.000000
30.125857 670.000000
30.145339 658.000000
30.164822 641.000000
30.184304 579.000000
30.203786 517.000000
30.223269 543.000000
30.242751 483.000000
30.262233 516.000000
30.281716 493.000000
30.301198 541.000000
30.320681 483.000000
30.340163 509.000000
30.359645 492.000000
30.379128 536.000000
30.398610 496.000000
30.418092 464.000000
30.437575 522.000000
30.457057 532.000000
30.476539 477.000000
30.496022 493.000000
30.515504 460.000000
30.534987 467.000000
30.554469 501.000000
30.573951 479.000000
30.593434 469.000000
30.612916 533.000000
30.632398 441.000000
30.651881 496.000000
30.671363 513.000000
30.690846 481.000000
30.710328 439.000000
30.729810 501.000000
30.749293 462.000000
30.768775 493.000000
30.788257 509.000000
30.807740 471.000000
30.827222 501.000000
30.846704 494.000000
30.866187 479.000000
30.885669 466.000000
30.905152 502.000000
30.924634 510.000000
30.944116 508.000000
30.963599 524.000000
30.983081 460.000000
31.002563 500.000000
31.022046 529.000000
31.041528 498.000000
31.061011 490.000000
31.080493 474.000000
31.099975 494.000000
31.119458 451.000000
31.138940 493.000000
31.158422 518.000000
31.177905 499.000000
31.197387 526.000000
31.216870 521.000000
31.236352 460.000000
31.255834 463.000000
31.275317 499.000000
31.294799 448.000000
31.314281 513.000000
31.333764 479.000000
31.353246 483.000000
31.372728 494.000000
31.392211 477.000000
31.411693 528.000000
31.431176 523.000000
31.450658 528.000000
31.470140 524.000000
31.489623 520.000000
31.509105 536.000000
31.528587 564.000000
31.548070 532.000000
31.567552 492.000000
31.587035 507.000000
31.606517 516.000000
31.625999 496.000000
31.645482 514.000000
31.664964 477.000000
31.684446 469.000000
31.703929 524.000000
31.723411 472.000000
31.742893 447.000000
31.762376 485.000000
31.781858 475.000000
31.801341 482.000000
31.820823 484.000000
31.840305 547.000000
31.859788 487.000000
31.879270 490.000000
31.898752 504.000000
31.918235 471.000000
31.937717 507.000000
31.957200 528.000000
31.976682 477.000000
31.996164 465.000000
32.015647 510.000000
32.035129 494.000000
32.054611 475.000000
32.074094 492.000000
32.093576 478.000000
32.113058 524.000000
32.132541 498.000000
32.152023 503.000000
32.171506 495.000000
32.190988 494.000000
32.210470 465.000000
32.229953 534.000000
32.249435 495.000000
32.268917 507.000000
32.288400 506.000000
32.307882 484.000000
32.327365 518.000000
32.346847 486.000000
32.366329 483.000000
32.385812 467.000000
32.405294 505.000000
32.424776 503.000000
32.444259 460.000000
32.463741 492.000000
32.483223 500.000000
32.502706 483.000000
32.522188 479.000000
32.541671 478.000000
32.561153 488.000000
32.580635 509.000000
32.600118 508.000000
32.619600 496.000000
32.639082 511.000000
32.658565 525.000000
32.678047 466.000000
32.697530 465.000000
32.717012 503.000000
32.736494 470.000000
32.755977 457.000000
32.775459 511.000000
32.794941 510.000000
32.814424 509.000000
32.833906 476.000000
32.853389 537.000000
32.872871 498.000000
32.892353 519.000000
32.911836 516.000000
32.931318 485.000000
32.950800 491.000000
32.970283 508.000000
32.989765 479.000000
33.009247 469.000000
33.028730 497.000000
33.048212 482.000000
33.067695 521.000000
33.087177 501.000000
33.106659 512.000000
33.126142 507.000000
33.145624 492.000000
33.165106 514.000000
33.184589 536.000000
33.204071 608.000000
33.223554 660.000000
33.243036 685.000000
33.262518 564.000000
33.282001 554.000000
33.301483 630.000000
33.320965 580.000000
33.340448 533.000000
33.359930 530.000000
33.379412 532.000000
33.398895 532.000000
33.418377 502.000000
33.437860 497.000000
33.457342 467.000000
33.476824 475.000000
33.496307 481.000000
33.515789 473.000000
33.535271 515.000000
33.554754 510.000000
33.574236 512.000000
33.593719 467.000000
33.613201 503.000000
33.632683 490.000000
33.652166 539.000000
33.671648 481.000000
33.691130 537.000000
33.710613 523.000000
33.730095 500.000000
33.749577 518.000000
33.769060 498.000000
33.788542 490.000000
33.808025 500.000000
33.827507 458.000000
33.846989 487.000000
33.866472 511.000000
33.885954 479.000000
33.905436 478.000000
33.924919 515.000000
33.944401 486.000000
33.963884 458.000000
33.983366 477.000000
34.002848 480.000000
34.022331 535.000000
34.041813 473.000000
34.061295 493.000000
34.080778 548.000000
34.100260 531.000000
34.119742 523.000000
34.139225 500.000000
34.158707 504.000000
34.178190 496.000000
34.197672 531.000000
34.217154 537.000000
34.236637 525.000000
34.256119 483.000000
34.275601 533.000000
34.295084 490.000000
34.314566 508.000000
34.334049 522.000000
34.353531 489.000000
34.373013 540.000000
34.392496 533.000000
34.411978 497.000000
34.431460 520.000000
34.450943 476.000000
34.470425 533.000000
34.489908 513.000000
34.509390 491.000000
34.528872 563.000000
34.548355 502.000000
34.567837 511.000000
34.587319 473.000000
34.606802 513.000000
34.626284 501.000000
34.645766 512.000000
34.665249 474.000000
34.684731 519.000000
34.704214 496.000000
34.723696 551.000000
34.743178 527.000000
34.762661 510.000000
34.782143 486.000000
34.801625 536.000000
34.821108 504.000000
34.840590 505.000000
34.860073 463.000000
34.879555 540.000000
34.899037 506.000000
34.918520 508.000000
34.938002 511.000000
34.957484 531.000000
34.976967 477.000000
34.996449 435.000000
35.015931 511.000000
35.035414 510.000000
35.054896 542.000000
35.074379 489.000000
35.093861 480.000000
35.113343 505.000000
35.132826 509.000000
35.152308 503.000000
35.171790 501.000000
35.191273 465.000000
35.210755 558.000000
35.230238 527.000000
35.249720 518.000000
35.269202 541.000000
35.288685 564.000000
35.308167 585.000000
35.327649 579.000000
35.347132 709.000000
35.366614 776.000000
35.386096 1150.000000
35.405579 1547.000000
35.425061 1796.000000
35.444544 1692.000000
35.464026 1327.000000
35.483508 1180.000000
35.502991 1228.000000
35.522473 1259.000000
35.541955 1042.000000
35.561438 784.000000
35.580920 695.000000
35.600403 639.000000
35.619885 590.000000
35.639367 569.000000
35.658850 534.000000
35.678332 539.000000
35.697814 573.000000
35.717297 519.000000
35.736779 542.000000
35.756261 522.000000
35.775744 491.000000
35.795226 533.000000
35.814709 510.000000
35.834191 562.000000
35.853673 496.000000
35.873156 523.000000
35.892638 509.000000
35.912120 496.000000
35.931603 554.000000
35.951085 483.000000
35.970568 535.000000
35.990050 558.000000
36.009532 529.000000
36.029015 557.000000
36.048497 502.000000
36.067979 593.000000
36.087462 515.000000
36.106944 495.000000
36.126426 503.000000
36.145909 542.000000
36.165391 519.000000
36.184874 537.000000
36.204356 483.000000
36.223838 516.000000
36.243321 480.000000
36.262803 477.000000
36.282285 517.000000
36.301768 557.000000
36.321250 527.000000
36.340733 474.000000
36.360215 523.000000
36.379697 533.000000
36.399180 480.000000
36.418662 508.000000
36.438144 514.000000
36.457627 542.000000
36.477109 522.000000
36.496592 542.000000
36.516074 557.000000
36.535556 561.000000
36.555039 580.000000
36.574521 563.000000
36.594003 522.000000
36.613486 495.000000
36.632968 590.000000
36.652450 547.000000
36.671933 530.000000
36.691415 504.000000
36.710898 478.000000
36.730380 539.000000
36.749862 512.000000
36.769345 526.000000
36.788827 485.000000
36.808309 492.000000
36.827792 531.000000
36.847274 548.000000
36.866757 505.000000
36.886239 516.000000
36.905721 518.000000
36.925204 475.000000
36.944686 521.000000
36.964168 536.000000
36.983651 525.000000
37.003133 543.000000
37.022615 537.000000
37.042098 514.000000
37.061580 622.000000
37.081063 581.000000
37.100545 544.000000
37.120027 568.000000
37.139510 536.000000
37.158992 546.000000
37.178474 514.000000
37.197957 522.000000
37.217439 498.000000
37.236922 508.000000
37.256404 483.000000
37.275886 506.000000
37.295369 539.000000
37.314851 536.000000
37.334333 493.000000
37.353816 520.000000
37.373298 524.000000
37.392780 521.000000
37.412263 531.000000
37.431745 504.000000
37.451228 529.000000
37.470710 516.000000
37.490192 496.000000
37.509675 538.000000
37.529157 495.000000
37.548639 532.000000
37.568122 513.000000
37.587604 523.000000
37.607087 497.000000
37.626569 491.000000
37.646051 493.000000
37.665534 468.000000
37.685016 480.000000
37.704498 533.000000
37.723981 526.000000
37.743463 504.000000
37.762945 474.000000
37.782428 463.000000
37.801910 518.000000
37.821393 486.000000
37.840875 499.000000
37.860357 468.000000
37.879840 470.000000
37.899322 536.000000
37.918804 482.000000
37.938287 486.000000
37.957769 503.000000
37.977252 513.000000
37.996734 499.000000
38.016216 497.000000
38.035699 517.000000
38.055181 533.000000
38.074663 486.000000
38.094146 512.000000
38.113628 495.000000
38.133111 555.000000
38.152593 512.000000
38.172075 492.000000
38.191558 524.000000
38.211040 491.000000
38.230522 504.000000
38.250005 512.000000
38.269487 458.000000
38.288969 505.000000
38.308452 517.000000
38.327934 528.000000
38.347417 548.000000
38.366899 524.000000
38.386381 495.000000
38.405864 499.000000
38.425346 525.000000
38.444828 482.000000
38.464311 497.000000
38.483793 498.000000
38.503276 531.000000
38.522758 527.000000
38.542240 488.000000
38.561723 502.000000
38.581205 489.000000
38.600687 504.000000
38.620170 499.000000
38.639652 490.000000
38.659134 440.000000
38.678617 479.000000
38.698099 507.000000
38.717582 483.000000
38.737064 500.000000
38.756546 497.000000
38.776029 493.000000
38.795511 510.000000
38.814993 518.000000
38.834476 543.000000
38.853958 521.000000
38.873441 482.000000
38.892923 484.000000
38.912405 507.000000
38.931888 535.000000
38.951370 512.000000
38.970852 492.000000
38.990335 535.000000
39.009817 554.000000
39.029299 533.000000
39.048782 487.000000
39.068264 482.000000
39.087747 489.000000
39.107229 511.000000
39.126711 471.000000
39.146194 493.000000
39.165676 468.000000
39.185158 509.000000
39.204641 491.000000
39.224123 484.000000
39.243606 473.000000
39.263088 519.000000
39.282570 522.000000
39.302053 518.000000
39.321535 485.000000
39.341017 470.000000
39.360500 511.000000
39.379982 515.000000
39.399464 550.000000
39.418947 543.000000
39.438429 554.000000
39.457912 568.000000
39.477394 536.000000
39.496876 584.000000
39.516359 586.000000
39.535841 568.000000
39.555323 548.000000
39.574806 580.000000
39.594288 559.000000
39.613771 530.000000
39.633253 511.000000
39.652735 539.000000
39.672218 512.000000
39.691700 524.000000
39.711182 500.000000
39.730665 518.000000
39.750147 517.000000
39.769630 522.000000
39.789112 541.000000
39.808594 529.000000
39.828077 489.000000
39.847559 490.000000
39.867041 520.000000
39.886524 467.000000
39.906006 493.000000
39.925488 537.000000
39.944971 525.000000
39.964453 507.000000
39.983936 460.000000
40.003418 500.000000
40.022900 523.000000
40.042383 522.000000
40.061865 515.000000
40.081347 508.000000
40.100830 538.000000
40.120312 514.000000
40.139795 504.000000
40.159277 503.000000
40.178759 511.000000
40.198242 557.000000
40.217724 494.000000
40.237206 491.000000
40.256689 472.000000
40.276171 495.000000
40.295653 502.000000
40.315136 530.000000
40.334618 528.000000
40.354101 533.000000
40.373583 507.000000
40.393065 514.000000
40.412548 524.000000
40.432030 511.000000
40.451512 483.000000
40.470995 519.000000
40.490477 525.000000
40.509960 541.000000
40.529442 509.000000
40.548924 476.000000
40.568407 513.000000
40.587889 491.000000
40.607371 515.000000
40.626854 518.000000
40.646336 514.000000
40.665818 492.000000
40.685301 495.000000
40.704783 458.000000
40.724266 487.000000
40.743748 517.000000
40.763230 497.000000
40.782713 555.000000
40.802195 503.000000
40.821677 454.000000
40.841160 523.000000
40.860642 525.000000
40.880125 531.000000
40.899607 507.000000
40.919089 503.000000
40.938572 491.000000
40.958054 544.000000
40.977536 492.000000
40.997019 484.000000
41.016501 505.000000
41.035983 485.000000
41.055466 531.000000
41.074948 543.000000
41.094431 502.000000
41.113913 530.000000
41.133395 528.000000
41.152878 537.000000
41.172360 477.000000
41.191842 496.000000
41.211325 518.000000
41.230807 493.000000
41.250290 537.000000
41.269772 510.000000
41.289254 484.000000
41.308737 534.000000
41.328219 504.000000
41.347701 538.000000
41.367184 513.000000
41.386666 500.000000
41.406149 519.000000
41.425631 531.000000
41.445113 530.000000
41.464596 534.000000
41.484078 490.000000
41.503560 517.000000
41.523043 543.000000
41.542525 501.000000
41.562007 516.000000
41.581490 491.000000
41.600972 528.000000
41.620455 539.000000
41.639937 552.000000
41.659419 477.000000
41.678902 537.000000
41.698384 524.000000
41.717866 516.000000
41.737349 549.000000
41.756831 524.000000
41.776314 536.000000
41.795796 568.000000
41.815278 542.000000
41.834761 555.000000
41.854243 537.000000
41.873725 478.000000
41.893208 536.000000
41.912690 499.000000
41.932172 519.000000
41.951655 478.000000
41.971137 514.000000
41.990620 523.000000
42.010102 513.000000
42.029584 471.000000
42.049067 569.000000
42.068549 496.000000
42.088031 523.000000
42.107514 498.000000
42.126996 544.000000
42.146479 538.000000
42.165961 516.000000
42.185443 516.000000
42.204926 523.000000
42.224408 503.000000
42.243890 567.000000
42.263373 531.000000
42.282855 498.000000
42.302337 511.000000
42.321820 491.000000
42.341302 533.000000
42.360785 512.000000
42.380267 531.000000
42.399749 551.000000
42.419232 513.000000
42.438714 530.000000
42.458196 518.000000
42.477679 567.000000
42.497161 480.000000
42.516644 520.000000
42.536126 546.000000
42.555608 531.000000
42.575091 499.000000
42.594573 502.000000
42.614055 481.000000
42.633538 492.000000
42.653020 514.000000
42.672502 535.000000
42.691985 529.000000
42.711467 531.000000
42.730950 530.000000
42.750432 506.000000
42.769914 511.000000
42.789397 519.000000
42.808879 492.000000
42.828361 540.000000
42.847844 508.000000
42.867326 532.000000
42.886809 576.000000
42.906291 532.000000
42.925773 498.000000
42.945256 556.000000
42.964738 553.000000
42.984220 572.000000
43.003703 541.000000
43.023185 598.000000
43.042667 694.000000
43.062150 737.000000
43.081632 722.000000
43.101115 657.000000
43.120597 634.000000
43.140079 591.000000
43.159562 605.000000
43.179044 637.000000
43.198526 638.000000
43.218009 573.000000
43.237491 586.000000
43.256974 532.000000
43.276456 524.000000
43.295938 526.000000
43.315421 567.000000
43.334903 509.000000
43.354385 522.000000
43.373868 499.000000
43.393350 515.000000
43.412833 502.000000
43.432315 490.000000
43.451797 498.000000
43.471280 504.000000
43.490762 502.000000
43.510244 469.000000
43.529727 485.000000
43.549209 486.000000
43.568691 519.000000
43.588174 564.000000
43.607656 479.000000
43.627139 506.000000
43.646621 556.000000
43.666103 472.000000
43.685586 548.000000
43.705068 531.000000
43.724550 554.000000
43.744033 500.000000
43.763515 543.000000
43.782998 534.000000
43.802480 566.000000
43.821962 518.000000
43.841445 540.000000
43.860927 545.000000
43.880409 509.000000
43.899892 535.000000
43.919374 528.000000
43.938856 506.000000
43.958339 531.000000
43.977821 525.000000
43.997304 503.000000
44.016786 508.000000
44.036268 490.000000
44.055751 505.000000
44.075233 526.000000
44.094715 501.000000
44.114198 526.000000
44.133680 525.000000
44.153163 543.000000
44.172645 521.000000
44.192127 510.000000
44.211610 504.000000
44.231092 487.000000
44.250574 490.000000
44.270057 533.000000
44.289539 565.000000
44.309021 484.000000
44.328504 468.000000
44.347986 535.000000
44.367469 529.000000
44.386951 535.000000
44.406433 516.000000
44.425916 512.000000
44.445398 554.000000
44.464880 560.000000
44.484363 524.000000
44.503845 529.000000
44.523328 552.000000
44.542810 510.000000
44.562292 475.000000
44.581775 510.000000
44.601257 498.000000
44.620739 496.000000
44.640222 519.000000
44.659704 530.000000
44.679186 473.000000
44.698669 474.000000
44.718151 495.000000
44.737634 526.000000
44.757116 502.000000
44.776598 502.000000
44.796081 526.000000
44.815563 517.000000
44.835045 504.000000
44.854528 520.000000
44.874010 553.000000
44.893493 521.000000
44.912975 522.000000
44.932457 531.000000
44.951940 543.000000
44.971422 520.000000
44.990904 521.000000
45.010387 533.000000
45.029869 554.000000
45.049352 526.000000
45.068834 536.000000
45.088316 535.000000
45.107799 527.000000
45.127281 465.000000
45.146763 512.000000
45.166246 511.000000
45.185728 506.000000
45.205210 510.000000
45.224693 512.000000
45.244175 541.000000
45.263658 484.000000
45.283140 464.000000
45.302622 508.000000
45.322105 514.000000
45.341587 516.000000
45.361069 527.000000
45.380552 527.000000
45.400034 518.000000
45.419517 530.000000
45.438999 547.000000
45.458481 521.000000
45.477964 510.000000
45.497446 554.000000
45.516928 561.000000
45.536411 526.000000
45.555893 510.000000
45.575375 500.000000
45.594858 516.000000
45.614340 568.000000
45.633823 496.000000
45.653305 507.000000
45.672787 530.000000
45.692270 523.000000
45.711752 507.000000
45.731234 504.000000
45.750717 525.000000
45.770199 546.000000
45.789682 522.000000
45.809164 505.000000
45.828646 489.000000
45.848129 493.000000
45.867611 495.000000
45.887093 506.000000
45.906576 545.000000
45.926058 517.000000
45.945540 492.000000
45.965023 501.000000
45.984505 554.000000
46.003988 505.000000
46.023470 479.000000
46.042952 530.000000
46.062435 492.000000
46.081917 519.000000
46.101399 480.000000
46.120882 513.000000
46.140364 512.000000
46.159847 577.000000
46.179329 519.000000
46.198811 534.000000
46.218294 504.000000
46.237776 503.000000
46.257258 531.000000
46.276741 502.000000
46.296223 522.000000
46.315705 509.000000
46.335188 551.000000
46.354670 515.000000
46.374153 529.000000
46.393635 552.000000
46.413117 564.000000
46.432600 521.000000
46.452082 538.000000
46.471564 499.000000
46.491047 564.000000
46.510529 526.000000
46.530012 513.000000
46.549494 533.000000
46.568976 551.000000
46.588459 500.000000
46.607941 529.000000
46.627423 547.000000
46.646906 488.000000
46.666388 540.000000
46.685871 456.000000
46.705353 491.000000
46.724835 535.000000
46.744318 505.000000
46.763800 509.000000
46.783282 523.000000
46.802765 513.000000
46.822247 542.000000
46.841729 542.000000
46.861212 497.000000
46.880694 532.000000
46.900177 550.000000
46.919659 517.000000
46.939141 519.000000
46.958624 477.000000
46.978106 516.000000
46.997588 478.000000
47.017071 547.000000
47.036553 539.000000
47.056036 495.000000
47.075518 519.000000
47.095000 502.000000
47.114483 542.000000
47.133965 561.000000
47.153447 583.000000
47.172930 527.000000
47.192412 509.000000
47.211894 518.000000
47.231377 507.000000
47.250859 503.000000
47.270342 532.000000
47.289824 544.000000
47.309306 577.000000
47.328789 513.000000
47.348271 513.000000
47.367753 542.000000
47.387236 536.000000
47.406718 514.000000
47.426201 496.000000
47.445683 503.000000
47.465165 537.000000
47.484648 478.000000
47.504130 569.000000
47.523612 610.000000
47.543095 575.000000
47.562577 536.000000
47.582059 582.000000
47.601542 522.000000
47.621024 546.000000
47.640507 580.000000
47.659989 566.000000
47.679471 555.000000
47.698954 554.000000
47.718436 586.000000
47.737918 506.000000
47.757401 552.000000
47.776883 508.000000
47.796366 540.000000
47.815848 536.000000
47.835330 523.000000
47.854813 521.000000
47.874295 522.000000
47.893777 543.000000
47.913260 488.000000
47.932742 542.000000
47.952224 524.000000
47.971707 548.000000
47.991189 556.000000
48.010672 498.000000
48.030154 528.000000
48.049636 487.000000
48.069119 562.000000
48.088601 549.000000
48.108083 519.000000
48.127566 552.000000
48.147048 521.000000
48.166531 554.000000
48.186013 547.000000
48.205495 522.000000
48.224978 523.000000
48.244460 517.000000
48.263942 568.000000
48.283425 543.000000
48.302907 506.000000
48.322389 523.000000
48.341872 536.000000
48.361354 502.000000
48.380837 551.000000
48.400319 467.000000
48.419801 520.000000
48.439284 516.000000
48.458766 560.000000
48.478248 572.000000
48.497731 595.000000
48.517213 593.000000
48.536696 624.000000
48.556178 627.000000
48.575660 640.000000
48.595143 614.000000
48.614625 603.000000
48.634107 602.000000
48.653590 624.000000
48.673072 610.000000
48.692555 593.000000
48.712037 627.000000
48.731519 538.000000
48.751002 585.000000
48.770484 556.000000
48.789966 557.000000
48.809449 560.000000
48.828931 548.000000
48.848413 543.000000
48.867896 525.000000
48.887378 544.000000
48.906861 528.000000
48.926343 568.000000
48.945825 495.000000
48.965308 488.000000
48.984790 523.000000
49.004272 562.000000
49.023755 511.000000
49.043237 496.000000
49.062720 570.000000
49.082202 475.000000
49.101684 511.000000
49.121167 522.000000
49.140649 531.000000
49.160131 546.000000
49.179614 539.000000
49.199096 533.000000
49.218578 506.000000
49.238061 524.000000
49.257543 527.000000
49.277026 530.000000
49.296508 515.000000
49.315990 561.000000
49.335473 531.000000
49.354955 515.000000
49.374437 498.000000
49.393920 525.000000
49.413402 534.000000
49.432885 510.000000
49.452367 511.000000
49.471849 538.000000
49.491332 537.000000
49.510814 543.000000
49.530296 541.000000
49.549779 534.000000
49.569261 537.000000
49.588743 519.000000
49.608226 540.000000
49.627708 560.000000
49.647191 572.000000
49.666673 523.000000
49.686155 527.000000
49.705638 498.000000
49.725120 517.000000
49.744602 538.000000
49.764085 486.000000
49.783567 476.000000
49.803050 537.000000
49.822532 539.000000
49.842014 534.000000
49.861497 585.000000
49.880979 547.000000
49.900461 511.000000
49.919944 591.000000
49.939426 531.000000
49.958908 540.000000
49.978391 527.000000
49.997873 538.000000
50.017356 575.000000
50.036838 504.000000
50.056320 527.000000
50.075803 501.000000
50.095285 518.000000
50.114767 512.000000
50.134250 537.000000
50.153732 574.000000
50.173215 542.000000
50.192697 502.000000
50.212179 526.000000
50.231662 525.000000
50.251144 557.000000
50.270626 524.000000
50.290109 497.000000
50.309591 517.000000
50.329074 566.000000
50.348556 540.000000
50.368038 525.000000
50.387521 557.000000
50.407003 598.000000
50.426485 509.000000
50.445968 524.000000
50.465450 579.000000
50.484932 538.000000
50.504415 510.000000
50.523897 501.000000
50.543380 521.000000
50.562862 506.000000
50.582344 487.000000
50.601827 537.000000
50.621309 510.000000
50.640791 523.000000
50.660274 519.000000
50.679756 515.000000
50.699239 480.000000
50.718721 552.000000
50.738203 524.000000
50.757686 529.000000
50.777168 493.000000
50.796650 500.000000
50.816133 534.000000
50.835615 513.000000
50.855097 486.000000
50.874580 565.000000
50.894062 543.000000
50.913545 498.000000
50.933027 495.000000
50.952509 555.000000
50.971992 530.000000
50.991474 531.000000
51.010956 535.000000
51.030439 526.000000
51.049921 532.000000
51.069404 471.000000
51.088886 541.000000
51.108368 539.000000
51.127851 518.000000
51.147333 482.000000
51.166815 580.000000
51.186298 520.000000
51.205780 520.000000
51.225262 499.000000
51.244745 545.000000
51.264227 553.000000
51.283710 521.000000
51.303192 528.000000
51.322674 528.000000
51.342157 556.000000
51.361639 537.000000
51.381121 516.000000
51.400604 548.000000
51.420086 532.000000
51.439569 506.000000
51.459051 523.000000
51.478533 559.000000
51.498016 499.000000
51.517498 540.000000
51.536980 514.000000
51.556463 549.000000
51.575945 521.000000
51.595427 510.000000
51.614910 478.000000
51.634392 581.000000
51.653875 544.000000
51.673357 554.000000
51.692839 580.000000
51.712322 575.000000
51.731804 553.000000
51.751286 518.000000
51.770769 518.000000
51.790251 521.000000
51.809734 543.000000
51.829216 485.000000
51.848698 526.000000
51.868181 527.000000
51.887663 528.000000
51.907145 505.000000
51.926628 529.000000
51.946110 542.000000
51.965593 499.000000
51.985075 524.000000
52.004557 522.000000
52.024040 538.000000
52.043522 527.000000
52.063004 557.000000
52.082487 524.000000
52.101969 521.000000
52.121451 493.000000
52.140934 500.000000
52.160416 555.000000
52.179899 545.000000
52.199381 535.000000
52.218863 521.000000
52.238346 548.000000
52.257828 557.000000
52.277310 535.000000
52.296793 514.000000
52.316275 554.000000
52.335758 534.000000
52.355240 532.000000
52.374722 524.000000
52.394205 529.000000
52.413687 519.000000
52.433169 538.000000
52.452652 515.000000
52.472134 543.000000
52.491616 494.000000
52.511099 518.000000
52.530581 564.000000
52.550064 515.000000
52.569546 551.000000
52.589028 553.000000
52.608511 556.000000
52.627993 509.000000
52.647475 546.000000
52.666958 583.000000
52.686440 519.000000
52.705923 558.000000
52.725405 486.000000
52.744887 493.000000
52.764370 536.000000
52.783852 562.000000
52.803334 548.000000
52.822817 548.000000
52.842299 546.000000
52.861781 549.000000
52.881264 554.000000
52.900746 567.000000
52.920229 526.000000
52.939711 553.000000
52.959193 511.000000
52.978676 516.000000
52.998158 548.000000
53.017640 520.000000
53.037123 508.000000
53.056605 513.000000
53.076088 519.000000
53.095570 545.000000
53.115052 539.000000
53.134535 541.000000
53.154017 541.000000
53.173499 494.000000
53.192982 533.000000
53.212464 519.000000
53.231946 539.000000
53.251429 520.000000
53.270911 517.000000
53.290394 545.000000
53.309876 573.000000
53.329358 544.000000
53.348841 577.000000
53.368323 620.000000
53.387805 628.000000
53.407288 689.000000
53.426770 676.000000
53.446253 655.000000
53.465735 543.000000
53.485217 581.000000
53.504700 606.000000
53.524182 610.000000
53.543664 631.000000
53.563147 610.000000
53.582629 618.000000
53.602112 588.000000
53.621594 542.000000
53.641076 582.000000
53.660559 546.000000
53.680041 503.000000
53.699523 576.000000
53.719006 526.000000
53.738488 584.000000
53.757970 571.000000
53.777453 520.000000
53.796935 524.000000
53.816418 535.000000
53.835900 515.000000
53.855382 510.000000
53.874865 539.000000
53.894347 550.000000
53.913829 529.000000
53.933312 534.000000
53.952794 542.000000
53.972277 553.000000
53.991759 525.000000
54.011241 518.000000
54.030724 532.000000
54.050206 528.000000
54.069688 598.000000
54.089171 540.000000
54.108653 552.000000
54.128135 533.000000
54.147618 559.000000
54.167100 519.000000
54.186583 515.000000
54.206065 544.000000
54.225547 549.000000
54.245030 530.000000
54.264512 531.000000
54.283994 541.000000
54.303477 484.000000
54.322959 577.000000
54.342442 498.000000
54.361924 519.000000
54.381406 550.000000
54.400889 528.000000
54.420371 537.000000
54.439853 538.000000
54.459336 535.000000
54.478818 567.000000
54.498300 579.000000
54.517783 544.000000
54.537265 532.000000
54.556748 538.000000
54.576230 561.000000
54.595712 549.000000
54.615195 533.000000
54.634677 550.000000
54.654159 535.000000
54.673642 509.000000
54.693124 551.000000
54.712607 551.000000
54.732089 535.000000
54.751571 543.000000
54.771054 578.000000
54.790536 480.000000
54.810018 546.000000
54.829501 505.000000
54.848983 512.000000
54.868465 582.000000
54.887948 538.000000
54.907430 548.000000
54.926913 532.000000
54.946395 574.000000
54.965877 559.000000
54.985360 552.000000
55.004842 531.000000
55.024324 507.000000
55.043807 549.000000
55.063289 563.000000
55.082772 583.000000
55.102254 571.000000
55.121736 543.000000
55.141219 546.000000
55.160701 552.000000
55.180183 544.000000
55.199666 563.000000
55.219148 513.000000
55.238630 527.000000
55.258113 538.000000
55.277595 521.000000
55.297078 545.000000
55.316560 536.000000
55.336042 532.000000
55.355525 530.000000
55.375007 566.000000
55.394489 507.000000
55.413972 534.000000
55.433454 534.000000
55.452937 543.000000
55.472419 566.000000
55.491901 529.000000
55.511384 534.000000
55.530866 560.000000
55.550348 544.000000
55.569831 551.000000
55.589313 561.000000
55.608796 537.000000
55.628278 542.000000
55.647760 541.000000
55.667243 561.000000
55.686725 504.000000
55.706207 555.000000
55.725690 542.000000
55.745172 563.000000
55.764654 528.000000
55.784137 506.000000
55.803619 502.000000
55.823102 505.000000
55.842584 532.000000
55.862066 561.000000
55.881549 586.000000
55.901031 557.000000
55.920513 566.000000
55.939996 541.000000
55.959478 550.000000
55.978961 536.000000
55.998443 552.000000
56.017925 517.000000
56.037408 565.000000
56.056890 516.000000
56.076372 490.000000
56.095855 523.000000
56.115337 547.000000
56.134819 557.000000
56.154302 566.000000
56.173784 541.000000
56.193267 517.000000
56.212749 513.000000
56.232231 562.000000
56.251714 536.000000
56.271196 547.000000
56.290678 582.000000
56.310161 580.000000
56.329643 513.000000
56.349126 551.000000
56.368608 526.000000
56.388090 527.000000
56.407573 558.000000
56.427055 532.000000
56.446537 551.000000
56.466020 553.000000
56.485502 574.000000
56.504984 527.000000
56.524467 529.000000
56.543949 555.000000
56.563432 555.000000
56.582914 526.000000
56.602396 535.000000
56.621879 510.000000
56.641361 557.000000
56.660843 558.000000
56.680326 566.000000
56.699808 546.000000
56.719291 519.000000
56.738773 574.000000
56.758255 569.000000
56.777738 554.000000
56.797220 580.000000
56.816702 588.000000
56.836185 622.000000
56.855667 601.000000
56.875149 603.000000
56.894632 635.000000
56.914114 780.000000
56.933597 855.000000
56.953079 893.000000
56.972561 865.000000
56.992044 677.000000
57.011526 644.000000
57.031008 579.000000
57.050491 655.000000
57.069973 647.000000
57.089456 703.000000
57.108938 745.000000
57.128420 688.000000
57.147903 619.000000
57.167385 590.000000
57.186867 650.000000
57.206350 616.000000
57.225832 588.000000
57.245315 550.000000
57.264797 603.000000
57.284279 560.000000
57.303762 580.000000
57.323244 547.000000
57.342726 599.000000
57.362209 617.000000
57.381691 568.000000
57.401173 562.000000
57.420656 575.000000
57.440138 571.000000
57.459621 582.000000
57.479103 542.000000
57.498585 522.000000
57.518068 568.000000
57.537550 578.000000
57.557032 570.000000
57.576515 538.000000
57.595997 568.000000
57.615480 573.000000
57.634962 546.000000
57.654444 562.000000
57.673927 580.000000
57.693409 577.000000
57.712891 572.000000
57.732374 523.000000
57.751856 528.000000
57.771338 565.000000
57.790821 553.000000
57.810303 507.000000
57.829786 566.000000
57.849268 597.000000
57.868750 567.000000
57.888233 502.000000
57.907715 531.000000
57.927197 592.000000
57.946680 554.000000
57.966162 538.000000
57.985645 552.000000
58.005127 514.000000
58.024609 543.000000
58.044092 490.000000
58.063574 562.000000
58.083056 533.000000
58.102539 515.000000
58.122021 572.000000
58.141503 522.000000
58.160986 557.000000
58.180468 515.000000
58.199951 577.000000
58.219433 501.000000
58.238915 538.000000
58.258398 551.000000
58.277880 563.000000
58.297362 509.000000
58.316845 530.000000
58.336327 543.000000
58.355810 538.000000
58.375292 517.000000
58.394774 559.000000
58.414257 569.000000
58.433739 556.000000
58.453221 592.000000
58.472704 581.000000
58.492186 523.000000
58.511668 583.000000
58.531151 584.000000
58.550633 553.000000
58.570116 519.000000
58.589598 560.000000
58.609080 564.000000
58.628563 565.000000
58.648045 496.000000
58.667527 564.000000
58.687010 562.000000
58.706492 540.000000
58.725975 542.000000
58.745457 525.000000
58.764939 487.000000
58.784422 576.000000
58.803904 547.000000
58.823386 572.000000
58.842869 576.000000
58.862351 552.000000
58.881834 511.000000
58.901316 557.000000
58.920798 560.000000
58.940281 580.000000
58.959763 551.000000
58.979245 545.000000
58.998728 573.000000
59.018210 535.000000
59.037692 528.000000
59.057175 549.000000
59.076657 559.000000
59.096140 545.000000
59.115622 522.000000
59.135104 566.000000
59.154587 546.000000
59.174069 527.000000
59.193551 551.000000
59.213034 554.000000
59.232516 538.000000
59.251999 549.000000
59.271481 529.000000
59.290963 543.000000
59.310446 530.000000
59.329928 551.000000
59.349410 549.000000
59.368893 543.000000
59.388375 521.000000
59.407857 548.000000
59.427340 546.000000
59.446822 570.000000
59.466305 562.000000
59.485787 532.000000
59.505269 550.000000
59.524752 551.000000
59.544234 518.000000
59.563716 532.000000
59.583199 528.000000
59.602681 491.000000
59.622164 532.000000
59.641646 539.000000
59.661128 469.000000
59.680611 580.000000
59.700093 506.000000
59.719575 557.000000
59.739058 536.000000
59.758540 543.000000
59.778022 561.000000
59.797505 568.000000
59.816987 563.000000
59.836470 534.000000
59.855952 554.000000
59.875434 585.000000
59.894917 537.000000
59.914399 530.000000
59.933881 533.000000
59.953364 578.000000
59.972846 565.000000
59.992329 594.000000
60.011811 559.000000
60.031293 546.000000
60.050776 541.000000
60.070258 545.000000
60.089740 590.000000
60.109223 544.000000
60.128705 563.000000
60.148187 543.000000
60.167670 553.000000
60.187152 547.000000
60.206635 532.000000
60.226117 606.000000
60.245599 558.000000
60.265082 538.000000
60.284564 570.000000
60.304046 546.000000
60.323529 537.000000
60.343011 548.000000
60.362494 594.000000
60.381976 557.000000
60.401458 507.000000
60.420941 576.000000
60.440423 538.000000
60.459905 511.000000
60.479388 573.000000
60.498870 542.000000
60.518352 541.000000
60.537835 515.000000
60.557317 569.000000
60.576800 562.000000
60.596282 548.000000
60.615764 562.000000
60.635247 591.000000
60.654729 560.000000
60.674211 549.000000
60.693694 558.000000
60.713176 589.000000
60.732659 590.000000
60.752141 560.000000
60.771623 573.000000
60.791106 583.000000
60.810588 546.000000
60.830070 524.000000
60.849553 535.000000
60.869035 581.000000
60.888518 569.000000
60.908000 557.000000
60.927482 539.000000
60.946965 572.000000
60.966447 537.000000
60.985929 552.000000
61.005412 554.000000
61.024894 587.000000
61.044376 567.000000
61.063859 569.000000
61.083341 520.000000
61.102824 568.000000
61.122306 603.000000
61.141788 557.000000
61.161271 545.000000
61.180753 578.000000
61.200235 585.000000
61.219718 566.000000
61.239200 571.000000
61.258683 513.000000
61.278165 569.000000
61.297647 570.000000
61.317130 564.000000
61.336612 537.000000
61.356094 534.000000
61.375577 564.000000
61.395059 596.000000
61.414541 569.000000
61.434024 590.000000
61.453506 592.000000
61.472989 549.000000
61.492471 550.000000
61.511953 547.000000
61.531436 555.000000
61.550918 567.000000
61.570400 578.000000
61.589883 572.000000
61.609365 561.000000
61.628848 524.000000
61.648330 565.000000
61.667812 580.000000
61.687295 554.000000
61.706777 544.000000
61.726259 587.000000
61.745742 563.000000
61.765224 532.000000
61.784706 571.000000
61.804189 585.000000
61.823671 595.000000
61.843154 548.000000
61.862636 531.000000
61.882118 598.000000
61.901601 559.000000
61.921083 541.000000
61.940565 545.000000
61.960048 543.000000
61.979530 553.000000
61.999013 559.000000
62.018495 535.000000
62.037977 517.000000
62.057460 528.000000
62.076942 538.000000
62.096424 582.000000
62.115907 566.000000
62.135389 608.000000
62.154871 581.000000
62.174354 522.000000
62.193836 534.000000
62.213319 564.000000
62.232801 556.000000
62.252283 629.000000
62.271766 552.000000
62.291248 562.000000
62.310730 552.000000
62.330213 545.000000
62.349695 563.000000
62.369178 548.000000
62.388660 592.000000
62.408142 628.000000
62.427625 589.000000
62.447107 596.000000
62.466589 673.000000
62.486072 714.000000
62.505554 814.000000
62.525037 852.000000
62.544519 834.000000
62.564001 731.000000
62.583484 769.000000
62.602966 663.000000
62.622448 704.000000
62.641931 637.000000
62.661413 660.000000
62.680895 656.000000
62.700378 779.000000
62.719860 701.000000
62.739343 657.000000
62.758825 647.000000
62.778307 579.000000
62.797790 630.000000
62.817272 581.000000
62.836754 576.000000
62.856237 518.000000
62.875719 542.000000
62.895202 591.000000
62.914684 566.000000
62.934166 564.000000
62.953649 558.000000
62.973131 568.000000
62.992613 502.000000
63.012096 604.000000
63.031578 540.000000
63.051060 528.000000
63.070543 542.000000
63.090025 545.000000
63.109508 528.000000
63.128990 572.000000
63.148472 567.000000
63.167955 555.000000
63.187437 597.000000
63.206919 523.000000
63.226402 542.000000
63.245884 532.000000
63.265367 516.000000
63.284849 582.000000
63.304331 539.000000
63.323814 548.000000
63.343296 564.000000
63.362778 548.000000
63.382261 559.000000
63.401743 497.000000
63.421225 607.000000
63.440708 551.000000
63.460190 567.000000
63.479673 560.000000
63.499155 529.000000
63.518637 542.000000
63.538120 607.000000
63.557602 580.000000
63.577084 553.000000
63.596567 526.000000
63.616049 556.000000
63.635532 568.000000
63.655014 580.000000
63.674496 532.000000
63.693979 512.000000
63.713461 531.000000
63.732943 550.000000
63.752426 541.000000
63.771908 579.000000
63.791390 554.000000
63.810873 558.000000
63.830355 519.000000
63.849838 559.000000
63.869320 571.000000
63.888802 548.000000
63.908285 557.000000
63.927767 521.000000
63.947249 541.000000
63.966732 547.000000
63.986214 571.000000
64.005697 546.000000
64.025179 596.000000
64.044661 608.000000
64.064144 531.000000
64.083626 540.000000
64.103108 565.000000
64.122591 515.000000
64.142073 549.000000
64.161556 571.000000
64.181038 594.000000
64.200520 564.000000
64.220003 506.000000
64.239485 532.000000
64.258967 563.000000
64.278450 553.000000
64.297932 522.000000
64.317414 548.000000
64.336897 555.000000
64.356379 591.000000
64.375862 527.000000
64.395344 553.000000
64.414826 551.000000
64.434309 552.000000
64.453791 544.000000
64.473273 523.000000
64.492756 573.000000
64.512238 548.000000
64.531721 581.000000
64.551203 573.000000
64.570685 579.000000
64.590168 537.000000
64.609650 585.000000
64.629132 542.000000
64.648615 579.000000
64.668097 529.000000
64.687579 558.000000
64.707062 508.000000
64.726544 560.000000
64.746027 552.000000
64.765509 543.000000
64.784991 545.000000
64.804474 569.000000
64.823956 562.000000
64.843438 581.000000
64.862921 562.000000
64.882403 587.000000
64.901886 538.000000
64.921368 576.000000
64.940850 555.000000
64.960333 532.000000
64.979815 500.000000
64.999297 606.000000
65.018780 508.000000
65.038262 560.000000
65.057744 525.000000
65.077227 532.000000
65.096709 565.000000
65.116192 576.000000
65.135674 552.000000
65.155156 520.000000
65.174639 527.000000
65.194121 550.000000
65.213603 571.000000
65.233086 575.000000
65.252568 591.000000
65.272051 507.000000
65.291533 517.000000
65.311015 553.000000
65.330498 535.000000
65.349980 539.000000
65.369462 562.000000
65.388945 537.000000
65.408427 525.000000
65.427909 572.000000
65.447392 567.000000
65.466874 581.000000
65.486357 537.000000
65.505839 572.000000
65.525321 538.000000
65.544804 558.000000
65.564286 588.000000
65.583768 597.000000
65.603251 531.000000
65.622733 595.000000
65.642216 580.000000
65.661698 563.000000
65.681180 599.000000
65.700663 607.000000
65.720145 637.000000
65.739627 661.000000
65.759110 662.000000
65.778592 625.000000
65.798075 648.000000
65.817557 561.000000
65.837039 629.000000
65.856522 591.000000
65.876004 599.000000
65.895486 623.000000
65.914969 620.000000
65.934451 595.000000
65.953933 629.000000
65.973416 535.000000
65.992898 536.000000
66.012381 555.000000
66.031863 606.000000
66.051345 560.000000
66.070828 580.000000
66.090310 548.000000
66.109792 549.000000
66.129275 574.000000
66.148757 539.000000
66.168240 572.000000
66.187722 603.000000
66.207204 595.000000
66.226687 553.000000
66.246169 594.000000
66.265651 560.000000
66.285134 516.000000
66.304616 546.000000
66.324098 587.000000
66.343581 551.000000
66.363063 538.000000
66.382546 557.000000
66.402028 574.000000
66.421510 582.000000
66.440993 603.000000
66.460475 541.000000
66.479957 542.000000
66.499440 569.000000
66.518922 556.000000
66.538405 523.000000
66.557887 564.000000
66.577369 562.000000
66.596852 573.000000
66.616334 528.000000
66.635816 536.000000
66.655299 517.000000
66.674781 547.000000
66.694263 576.000000
66.713746 553.000000
66.733228 575.000000
66.752711 595.000000
66.772193 562.000000
66.791675 577.000000
66.811158 561.000000
66.830640 537.000000
66.850122 563.000000
66.869605 571.000000
66.889087 498.000000
66.908570 560.000000
66.928052 542.000000
66.947534 554.000000
66.967017 523.000000
66.986499 557.000000
67.005981 569.000000
67.025464 588.000000
67.044946 547.000000
67.064428 565.000000
67.083911 565.000000
67.103393 521.000000
67.122876 567.000000
67.142358 526.000000
67.161840 565.000000
67.181323 536.000000
67.200805 554.000000
67.220287 546.000000
67.239770 576.000000
67.259252 576.000000
67.278735 562.000000
67.298217 582.000000
67.317699 582.000000
67.337182 570.000000
67.356664 558.000000
67.376146 523.000000
67.395629 552.000000
67.415111 591.000000
67.434593 561.000000
67.454076 566.000000
67.473558 604.000000
67.493041 529.000000
67.512523 584.000000
67.532005 623.000000
67.551488 564.000000
67.570970 552.000000
67.590452 545.000000
67.609935 579.000000
67.629417 557.000000
67.648900 563.000000
67.668382 625.000000
67.687864 581.000000
67.707347 522.000000
67.726829 577.000000
67.746311 571.000000
67.765794 518.000000
67.785276 582.000000
67.804759 536.000000
67.824241 523.000000
67.843723 589.000000
67.863206 524.000000
67.882688 521.000000
67.902170 541.000000
67.921653 535.000000
67.941135 554.000000
67.960617 521.000000
67.980100 517.000000
67.999582 561.000000
68.019065 574.000000
68.038547 525.000000
68.058029 560.000000
68.077512 544.000000
68.096994 592.000000
68.116476 550.000000
68.135959 512.000000
68.155441 558.000000
68.174924 548.000000
68.194406 573.000000
68.213888 544.000000
68.233371 539.000000
68.252853 562.000000
68.272335 552.000000
68.291818 560.000000
68.311300 560.000000
68.330782 549.000000
68.350265 551.000000
68.369747 593.000000
68.389230 536.000000
68.408712 587.000000
68.428194 544.000000
68.447677 558.000000
68.467159 491.000000
68.486641 627.000000
68.506124 562.000000
68.525606 561.000000
68.545089 551.000000
68.564571 559.000000
68.584053 542.000000
68.603536 566.000000
68.623018 563.000000
68.642500 580.000000
68.661983 579.000000
68.681465 571.000000
68.700947 526.000000
68.720430 519.000000
68.739912 571.000000
68.759395 542.000000
68.778877 581.000000
68.798359 594.000000
68.817842 568.000000
68.837324 589.000000
68.856806 560.000000
68.876289 534.000000
68.895771 563.000000
68.915254 542.000000
68.934736 563.000000
68.954218 560.000000
68.973701 566.000000
68.993183 495.000000
69.012665 563.000000
69.032148 572.000000
69.051630 586.000000
69.071112 574.000000
69.090595 577.000000
69.110077 566.000000
69.129560 538.000000
69.149042 556.000000
69.168524 574.000000
69.188007 561.000000
69.207489 554.000000
69.226971 601.000000
69.246454 543.000000
69.265936 526.000000
69.285419 595.000000
69.304901 592.000000
69.324383 570.000000
69.343866 554.000000
69.363348 545.000000
69.382830 520.000000
69.402313 547.000000
69.421795 534.000000
69.441278 543.000000
69.460760 553.000000
69.480242 572.000000
69.499725 558.000000
69.519207 556.000000
69.538689 529.000000
69.558172 591.000000
69.577654 528.000000
69.597136 553.000000
69.616619 582.000000
69.636101 595.000000
69.655584 612.000000
69.675066 576.000000
69.694548 569.000000
69.714031 573.000000
69.733513 595.000000
69.752995 594.000000
69.772478 600.000000
69.791960 544.000000
69.811443 592.000000
69.830925 567.000000
69.850407 559.000000
69.869890 601.000000
69.889372 529.000000
69.908854 588.000000
69.928337 573.000000
69.947819 578.000000
69.967301 581.000000
69.986784 547.000000
70.006266 581.000000
70.025749 607.000000
