4.000000 166.000000
4.019482 131.000000
4.038965 123.000000
4.058447 140.000000
4.077929 124.000000
4.097412 129.000000
4.116894 126.000000
4.136377 135.000000
4.155859 150.000000
4.175341 150.000000
4.194824 141.000000
4.214306 115.000000
4.233788 112.000000
4.253271 124.000000
4.272753 128.000000
4.292236 111.000000
4.311718 126.000000
4.331200 108.000000
4.350683 124.000000
4.370165 112.000000
4.389647 117.000000
4.409130 120.000000
4.428612 103.000000
4.448094 115.000000
4.467577 119.000000
4.487059 143.000000
4.506542 130.000000
4.526024 130.000000
4.545506 103.000000
4.564989 114.000000
4.584471 100.000000
4.603953 106.000000
4.623436 120.000000
4.642918 96.000000
4.662401 93.000000
4.681883 102.000000
4.701365 80.000000
4.720848 108.000000
4.740330 107.000000
4.759812 95.000000
4.779295 107.000000
4.798777 113.000000
4.818259 104.000000
4.837742 105.000000
4.857224 108.000000
4.876707 105.000000
4.896189 110.000000
4.915671 117.000000
4.935154 112.000000
4.954636 91.000000
4.974118 105.000000
4.993601 115.000000
5.013083 107.000000
5.032566 107.000000
5.052048 106.000000
5.071530 92.000000
5.091013 111.000000
5.110495 100.000000
5.129977 109.000000
5.149460 86.000000
5.168942 108.000000
5.188425 109.000000
5.207907 84.000000
5.227389 92.000000
5.246872 101.000000
5.266354 109.000000
5.285836 103.000000
5.305319 111.000000
5.324801 95.000000
5.344283 104.000000
5.363766 102.000000
5.383248 104.000000
5.402731 95.000000
5.422213 120.000000
5.441695 92.000000
5.461178 99.000000
5.480660 104.000000
5.500142 89.000000
5.519625 108.000000
5.539107 103.000000
5.558590 95.000000
5.578072 93.000000
5.597554 108.000000
5.617037 92.000000
5.636519 107.000000
5.656001 90.000000
5.675484 97.000000
5.694966 117.000000
5.714448 138.000000
5.733931 121.000000
5.753413 119.000000
5.772896 102.000000
5.792378 115.000000
5.811860 137.000000
5.831343 140.000000
5.850825 151.000000
5.870307 149.000000
5.889790 141.000000
5.909272 127.000000
5.928755 122.000000
5.948237 108.000000
5.967719 126.000000
5.987202 128.000000
6.006684 116.000000
6.026166 111.000000
6.045649 79.000000
6.065131 91.000000
6.084613 109.000000
6.104096 94.000000
6.123578 111.000000
6.143061 114.000000
6.162543 117.000000
6.182025 107.000000
6.201508 112.000000
6.220990 121.000000
6.240472 93.000000
6.259955 94.000000
6.279437 83.000000
6.298920 105.000000
6.318402 99.000000
6.337884 103.000000
6.357367 94.000000
6.376849 89.000000
6.396331 84.000000
6.415814 93.000000
6.435296 98.000000
6.454778 100.000000
6.474261 105.000000
6.493743 83.000000
6.513226 89.000000
6.532708 111.000000
6.552190 113.000000
6.571673 96.000000
6.591155 89.000000
6.610637 113.000000
6.630120 92.000000
6.649602 84.000000
6.669085 95.000000
6.688567 94.000000
6.708049 84.000000
6.727532 117.000000
6.747014 74.000000
6.766496 92.000000
6.785979 101.000000
6.805461 103.000000
6.824944 96.000000
6.844426 100.000000
6.863908 87.000000
6.883391 108.000000
6.902873 100.000000
6.922355 108.000000
6.941838 92.000000
6.961320 84.000000
6.980802 93.000000
7.000285 92.000000
7.019767 94.000000
7.039250 85.000000
7.058732 77.000000
7.078214 88.000000
7.097697 91.000000
7.117179 88.000000
7.136661 93.000000
7.156144 91.000000
7.175626 97.000000
7.195109 104.000000
7.214591 92.000000
7.234073 97.000000
7.253556 97.000000
7.273038 75.000000
7.292520 98.000000
7.312003 98.000000
7.331485 86.000000
7.350967 76.000000
7.370450 110.000000
7.389932 80.000000
7.409415 94.000000
7.428897 79.000000
7.448379 89.000000
7.467862 85.000000
7.487344 89.000000
7.506826 87.000000
7.526309 98.000000
7.545791 83.000000
7.565274 91.000000
7.584756 73.000000
7.604238 102.000000
7.623721 83.000000
7.643203 74.000000
7.662685 90.000000
7.682168 91.000000
7.701650 100.000000
7.721132 99.000000
7.740615 100.000000
7.760097 81.000000
7.779580 99.000000
7.799062 91.000000
7.818544 82.000000
7.838027 78.000000
7.857509 89.000000
7.876991 114.000000
7.896474 87.000000
7.915956 93.000000
7.935439 78.000000
7.954921 93.000000
7.974403 89.000000
7.993886 93.000000
8.013368 88.000000
8.032850 80.000000
8.052333 81.000000
8.071815 90.000000
8.091297 85.000000
8.110780 84.000000
8.130262 76.000000
8.149745 96.000000
8.169227 89.000000
8.188709 81.000000
8.208192 83.000000
8.227674 100.000000
8.247156 92.000000
8.266639 93.000000
8.286121 87.000000
8.305604 74.000000
8.325086 73.000000
8.344568 83.000000
8.364051 78.000000
8.383533 75.000000
8.403015 84.000000
8.422498 76.000000
8.441980 84.000000
8.461463 90.000000
8.480945 90.000000
8.500427 85.000000
8.519910 108.000000
8.539392 80.000000
8.558874 84.000000
8.578357 91.000000
8.597839 92.000000
8.617321 105.000000
8.636804 85.000000
8.656286 104.000000
8.675769 93.000000
8.695251 96.000000
8.714733 65.000000
8.734216 93.000000
8.753698 84.000000
8.773180 79.000000
8.792663 84.000000
8.812145 85.000000
8.831628 97.000000
8.851110 78.000000
8.870592 100.000000
8.890075 90.000000
8.909557 85.000000
8.929039 98.000000
8.948522 91.000000
8.968004 94.000000
8.987486 99.000000
9.006969 97.000000
9.026451 78.000000
9.045934 105.000000
9.065416 108.000000
9.084898 98.000000
9.104381 64.000000
9.123863 91.000000
9.143345 98.000000
9.162828 88.000000
9.182310 107.000000
9.201793 93.000000
9.221275 101.000000
9.240757 79.000000
9.260240 100.000000
9.279722 84.000000
9.299204 93.000000
9.318687 88.000000
9.338169 110.000000
9.357651 90.000000
9.377134 110.000000
9.396616 134.000000
9.416099 112.000000
9.435581 145.000000
9.455063 124.000000
9.474546 101.000000
9.494028 107.000000
9.513510 92.000000
9.532993 93.000000
9.552475 78.000000
9.571958 85.000000
9.591440 84.000000
9.610922 88.000000
9.630405 89.000000
9.649887 106.000000
9.669369 87.000000
9.688852 89.000000
9.708334 78.000000
9.727816 92.000000
9.747299 97.000000
9.766781 95.000000
9.786264 98.000000
9.805746 85.000000
9.825228 69.000000
9.844711 96.000000
9.864193 94.000000
9.883675 83.000000
9.903158 94.000000
9.922640 92.000000
9.942123 98.000000
9.961605 99.000000
9.981087 86.000000
10.000570 96.000000
10.020052 88.000000
10.039534 88.000000
10.059017 100.000000
10.078499 95.000000
10.097982 85.000000
10.117464 86.000000
10.136946 92.000000
10.156429 88.000000
10.175911 72.000000
10.195393 103.000000
10.214876 103.000000
10.234358 69.000000
10.253840 77.000000
10.273323 81.000000
10.292805 90.000000
10.312288 99.000000
10.331770 96.000000
10.351252 85.000000
10.370735 71.000000
10.390217 84.000000
10.409699 97.000000
10.429182 90.000000
10.448664 84.000000
10.468147 93.000000
10.487629 97.000000
10.507111 93.000000
10.526594 101.000000
10.546076 88.000000
10.565558 78.000000
10.585041 79.000000
10.604523 84.000000
10.624005 88.000000
10.643488 82.000000
10.662970 87.000000
10.682453 75.000000
10.701935 79.000000
10.721417 80.000000
10.740900 89.000000
10.760382 89.000000
10.779864 77.000000
10.799347 89.000000
10.818829 71.000000
10.838312 86.000000
10.857794 79.000000
10.877276 84.000000
10.896759 73.000000
10.916241 78.000000
10.935723 93.000000
10.955206 93.000000
10.974688 73.000000
10.994170 83.000000
11.013653 101.000000
11.033135 93.000000
11.052618 82.000000
11.072100 92.000000
11.091582 79.000000
11.111065 91.000000
11.130547 91.000000
11.150029 88.000000
11.169512 80.000000
11.188994 101.000000
11.208477 75.000000
11.227959 83.000000
11.247441 77.000000
11.266924 83.000000
11.286406 81.000000
11.305888 86.000000
11.325371 90.000000
11.344853 81.000000
11.364335 99.000000
11.383818 75.000000
11.403300 98.000000
11.422783 103.000000
11.442265 72.000000
11.461747 79.000000
11.481230 98.000000
11.500712 91.000000
11.520194 80.000000
11.539677 93.000000
11.559159 94.000000
11.578642 98.000000
11.598124 78.000000
11.617606 94.000000
11.637089 100.000000
11.656571 94.000000
11.676053 85.000000
11.695536 98.000000
11.715018 100.000000
11.734500 105.000000
11.753983 74.000000
11.773465 85.000000
11.792948 87.000000
11.812430 83.000000
11.831912 88.000000
11.851395 80.000000
11.870877 82.000000
11.890359 82.000000
11.909842 81.000000
11.929324 99.000000
11.948807 72.000000
11.968289 106.000000
11.987771 83.000000
12.007254 79.000000
12.026736 86.000000
12.046218 85.000000
12.065701 89.000000
12.085183 80.000000
12.104666 100.000000
12.124148 78.000000
12.143630 84.000000
12.163113 91.000000
12.182595 91.000000
12.202077 98.000000
12.221560 94.000000
12.241042 100.000000
12.260524 101.000000
12.280007 96.000000
12.299489 98.000000
12.318972 90.000000
12.338454 90.000000
12.357936 96.000000
12.377419 100.000000
12.396901 93.000000
12.416383 110.000000
12.435866 103.000000
12.455348 100.000000
12.474831 109.000000
12.494313 94.000000
12.513795 92.000000
12.533278 87.000000
12.552760 97.000000
12.572242 79.000000
12.591725 81.000000
12.611207 97.000000
12.630689 85.000000
12.650172 92.000000
12.669654 88.000000
12.689137 91.000000
12.708619 85.000000
12.728101 81.000000
12.747584 89.000000
12.767066 85.000000
12.786548 77.000000
12.806031 92.000000
12.825513 81.000000
12.844996 79.000000
12.864478 99.000000
12.883960 74.000000
12.903443 83.000000
12.922925 83.000000
12.942407 78.000000
12.961890 91.000000
12.981372 82.000000
13.000854 73.000000
13.020337 81.000000
13.039819 80.000000
13.059302 81.000000
13.078784 90.000000
13.098266 70.000000
13.117749 91.000000
13.137231 88.000000
13.156713 89.000000
13.176196 63.000000
13.195678 68.000000
13.215161 90.000000
13.234643 102.000000
13.254125 82.000000
13.273608 99.000000
13.293090 90.000000
13.312572 84.000000
13.332055 79.000000
13.351537 82.000000
13.371019 71.000000
13.390502 90.000000
13.409984 80.000000
13.429467 84.000000
13.448949 91.000000
13.468431 91.000000
13.487914 86.000000
13.507396 89.000000
13.526878 89.000000
13.546361 85.000000
13.565843 73.000000
13.585326 85.000000
13.604808 97.000000
13.624290 84.000000
13.643773 98.000000
13.663255 77.000000
13.682737 80.000000
13.702220 77.000000
13.721702 78.000000
13.741185 89.000000
13.760667 90.000000
13.780149 88.000000
13.799632 79.000000
13.819114 101.000000
13.838596 89.000000
13.858079 72.000000
13.877561 89.000000
13.897043 93.000000
13.916526 87.000000
13.936008 74.000000
13.955491 84.000000
13.974973 86.000000
13.994455 80.000000
14.013938 87.000000
14.033420 87.000000
14.052902 107.000000
14.072385 86.000000
14.091867 93.000000
14.111350 86.000000
14.130832 95.000000
14.150314 88.000000
14.169797 83.000000
14.189279 80.000000
14.208761 99.000000
14.228244 75.000000
14.247726 93.000000
14.267208 98.000000
14.286691 80.000000
14.306173 97.000000
14.325656 88.000000
14.345138 80.000000
14.364620 85.000000
14.384103 87.000000
14.403585 76.000000
14.423067 85.000000
14.442550 97.000000
14.462032 76.000000
14.481515 80.000000
14.500997 85.000000
14.520479 92.000000
14.539962 84.000000
14.559444 103.000000
14.578926 93.000000
14.598409 80.000000
14.617891 75.000000
14.637373 96.000000
14.656856 90.000000
14.676338 73.000000
14.695821 97.000000
14.715303 99.000000
14.734785 89.000000
14.754268 97.000000
14.773750 73.000000
14.793232 89.000000
14.812715 93.000000
14.832197 82.000000
14.851680 79.000000
14.871162 94.000000
14.890644 93.000000
14.910127 92.000000
14.929609 80.000000
14.949091 88.000000
14.968574 82.000000
14.988056 86.000000
15.007538 71.000000
15.027021 84.000000
15.046503 87.000000
15.065986 84.000000
15.085468 94.000000
15.104950 103.000000
15.124433 86.000000
15.143915 93.000000
15.163397 95.000000
15.182880 92.000000
15.202362 97.000000
15.221845 93.000000
15.241327 80.000000
15.260809 95.000000
15.280292 87.000000
15.299774 102.000000
15.319256 90.000000
15.338739 68.000000
15.358221 66.000000
15.377704 84.000000
15.397186 77.000000
15.416668 95.000000
15.436151 95.000000
15.455633 95.000000
15.475115 78.000000
15.494598 63.000000
15.514080 82.000000
15.533562 78.000000
15.553045 78.000000
15.572527 85.000000
15.592010 91.000000
15.611492 90.000000
15.630974 100.000000
15.650457 89.000000
15.669939 83.000000
15.689421 82.000000
15.708904 91.000000
15.728386 81.000000
15.747869 102.000000
15.767351 89.000000
15.786833 92.000000
15.806316 81.000000
15.825798 75.000000
15.845280 74.000000
15.864763 81.000000
15.884245 100.000000
15.903727 76.000000
15.923210 92.000000
15.942692 85.000000
15.962175 82.000000
15.981657 89.000000
16.001139 83.000000
16.020622 100.000000
16.040104 98.000000
16.059586 77.000000
16.079069 88.000000
16.098551 112.000000
16.118034 86.000000
16.137516 74.000000
16.156998 97.000000
16.176481 91.000000
16.195963 94.000000
16.215445 99.000000
16.234928 95.000000
16.254410 89.000000
16.273892 80.000000
16.293375 78.000000
16.312857 73.000000
16.332340 84.000000
16.351822 78.000000
16.371304 82.000000
16.390787 80.000000
16.410269 85.000000
16.429751 82.000000
16.449234 89.000000
16.468716 103.000000
16.488199 77.000000
16.507681 72.000000
16.527163 73.000000
16.546646 87.000000
16.566128 88.000000
16.585610 96.000000
16.605093 79.000000
16.624575 88.000000
16.644057 98.000000
16.663540 98.000000
16.683022 75.000000
16.702505 75.000000
16.721987 74.000000
16.741469 90.000000
16.760952 95.000000
16.780434 95.000000
16.799916 100.000000
16.819399 78.000000
16.838881 79.000000
16.858364 71.000000
16.877846 88.000000
16.897328 79.000000
16.916811 85.000000
16.936293 78.000000
16.955775 92.000000
16.975258 82.000000
16.994740 88.000000
17.014222 94.000000
17.033705 104.000000
17.053187 91.000000
17.072670 86.000000
17.092152 67.000000
17.111634 65.000000
17.131117 97.000000
17.150599 97.000000
17.170081 101.000000
17.189564 90.000000
17.209046 89.000000
17.228529 92.000000
17.248011 92.000000
17.267493 96.000000
17.286976 96.000000
17.306458 80.000000
17.325940 95.000000
17.345423 85.000000
17.364905 82.000000
17.384388 76.000000
17.403870 95.000000
17.423352 88.000000
17.442835 84.000000
17.462317 76.000000
17.481799 78.000000
17.501282 78.000000
17.520764 87.000000
17.540246 90.000000
17.559729 99.000000
17.579211 99.000000
17.598694 87.000000
17.618176 95.000000
17.637658 86.000000
17.657141 76.000000
17.676623 82.000000
17.696105 88.000000
17.715588 84.000000
17.735070 85.000000
17.754553 72.000000
17.774035 85.000000
17.793517 85.000000
17.813000 88.000000
17.832482 84.000000
17.851964 82.000000
17.871447 72.000000
17.890929 95.000000
17.910411 83.000000
17.929894 88.000000
17.949376 94.000000
17.968859 102.000000
17.988341 85.000000
18.007823 89.000000
18.027306 106.000000
18.046788 86.000000
18.066270 84.000000
18.085753 68.000000
18.105235 81.000000
18.124718 84.000000
18.144200 84.000000
18.163682 91.000000
18.183165 96.000000
18.202647 103.000000
18.222129 98.000000
18.241612 86.000000
18.261094 118.000000
18.280576 122.000000
18.300059 118.000000
18.319541 101.000000
18.339024 100.000000
18.358506 97.000000
18.377988 78.000000
18.397471 81.000000
18.416953 104.000000
18.436435 76.000000
18.455918 92.000000
18.475400 98.000000
18.494883 97.000000
18.514365 74.000000
18.533847 69.000000
18.553330 109.000000
18.572812 84.000000
18.592294 80.000000
18.611777 97.000000
18.631259 75.000000
18.650741 109.000000
18.670224 86.000000
18.689706 80.000000
18.709189 81.000000
18.728671 94.000000
18.748153 77.000000
18.767636 107.000000
18.787118 87.000000
18.806600 80.000000
18.826083 91.000000
18.845565 87.000000
18.865048 75.000000
18.884530 101.000000
18.904012 74.000000
18.923495 101.000000
18.942977 94.000000
18.962459 104.000000
18.981942 78.000000
19.001424 110.000000
19.020907 91.000000
19.040389 71.000000
19.059871 83.000000
19.079354 88.000000
19.098836 91.000000
19.118318 82.000000
19.137801 75.000000
19.157283 85.000000
19.176765 97.000000
19.196248 82.000000
19.215730 93.000000
19.235213 83.000000
19.254695 101.000000
19.274177 74.000000
19.293660 85.000000
19.313142 81.000000
19.332624 88.000000
19.352107 87.000000
19.371589 85.000000
19.391072 84.000000
19.410554 77.000000
19.430036 90.000000
19.449519 83.000000
19.469001 81.000000
19.488483 98.000000
19.507966 97.000000
19.527448 88.000000
19.546930 79.000000
19.566413 95.000000
19.585895 111.000000
19.605378 95.000000
19.624860 92.000000
19.644342 99.000000
19.663825 77.000000
19.683307 88.000000
19.702789 104.000000
19.722272 89.000000
19.741754 80.000000
19.761237 101.000000
19.780719 75.000000
19.800201 96.000000
19.819684 104.000000
19.839166 77.000000
19.858648 99.000000
19.878131 95.000000
19.897613 100.000000
19.917095 80.000000
19.936578 85.000000
19.956060 77.000000
19.975543 89.000000
19.995025 93.000000
20.014507 93.000000
20.033990 89.000000
20.053472 99.000000
20.072954 68.000000
20.092437 87.000000
20.111919 109.000000
20.131402 83.000000
20.150884 80.000000
20.170366 77.000000
20.189849 98.000000
20.209331 91.000000
20.228813 77.000000
20.248296 89.000000
20.267778 89.000000
20.287260 80.000000
20.306743 100.000000
20.326225 98.000000
20.345708 82.000000
20.365190 88.000000
20.384672 72.000000
20.404155 96.000000
20.423637 79.000000
20.443119 97.000000
20.462602 106.000000
20.482084 92.000000
20.501567 99.000000
20.521049 81.000000
20.540531 90.000000
20.560014 95.000000
20.579496 118.000000
20.598978 99.000000
20.618461 95.000000
20.637943 69.000000
20.657426 88.000000
20.676908 88.000000
20.696390 98.000000
20.715873 83.000000
20.735355 67.000000
20.754837 81.000000
20.774320 101.000000
20.793802 92.000000
20.813284 93.000000
20.832767 86.000000
20.852249 95.000000
20.871732 92.000000
20.891214 91.000000
20.910696 91.000000
20.930179 104.000000
20.949661 87.000000
20.969143 89.000000
20.988626 90.000000
21.008108 66.000000
21.027591 85.000000
21.047073 81.000000
21.066555 86.000000
21.086038 74.000000
21.105520 86.000000
21.125002 87.000000
21.144485 92.000000
21.163967 68.000000
21.183449 96.000000
21.202932 80.000000
21.222414 107.000000
21.241897 85.000000
21.261379 96.000000
21.280861 95.000000
21.300344 88.000000
21.319826 102.000000
21.339308 85.000000
21.358791 79.000000
21.378273 91.000000
21.397756 93.000000
21.417238 98.000000
21.436720 83.000000
21.456203 90.000000
21.475685 82.000000
21.495167 86.000000
21.514650 78.000000
21.534132 90.000000
21.553614 92.000000
21.573097 87.000000
21.592579 72.000000
21.612062 86.000000
21.631544 77.000000
21.651026 72.000000
21.670509 93.000000
21.689991 87.000000
21.709473 84.000000
21.728956 89.000000
21.748438 74.000000
21.767921 68.000000
21.787403 83.000000
21.806885 80.000000
21.826368 100.000000
21.845850 93.000000
21.865332 86.000000
21.884815 89.000000
21.904297 82.000000
21.923779 75.000000
21.943262 91.000000
21.962744 100.000000
21.982227 69.000000
22.001709 96.000000
22.021191 96.000000
22.040674 92.000000
22.060156 94.000000
22.079638 89.000000
22.099121 85.000000
22.118603 74.000000
22.138086 78.000000
22.157568 99.000000
22.177050 83.000000
22.196533 88.000000
22.216015 77.000000
22.235497 66.000000
22.254980 91.000000
22.274462 77.000000
22.293945 98.000000
22.313427 99.000000
22.332909 92.000000
22.352392 107.000000
22.371874 74.000000
22.391356 84.000000
22.410839 94.000000
22.430321 89.000000
22.449803 87.000000
22.469286 90.000000
22.488768 67.000000
22.508251 79.000000
22.527733 79.000000
22.547215 87.000000
22.566698 112.000000
22.586180 97.000000
22.605662 77.000000
22.625145 72.000000
22.644627 101.000000
22.664110 78.000000
22.683592 96.000000
22.703074 100.000000
22.722557 87.000000
22.742039 90.000000
22.761521 79.000000
22.781004 79.000000
22.800486 103.000000
22.819968 71.000000
22.839451 91.000000
22.858933 77.000000
22.878416 93.000000
22.897898 105.000000
22.917380 84.000000
22.936863 86.000000
22.956345 76.000000
22.975827 88.000000
22.995310 88.000000
23.014792 88.000000
23.034275 89.000000
23.053757 105.000000
23.073239 88.000000
23.092722 103.000000
23.112204 86.000000
23.131686 106.000000
23.151169 99.000000
23.170651 81.000000
23.190133 89.000000
23.209616 76.000000
23.229098 74.000000
23.248581 94.000000
23.268063 75.000000
23.287545 80.000000
23.307028 80.000000
23.326510 84.000000
23.345992 90.000000
23.365475 88.000000
23.384957 79.000000
23.404440 98.000000
23.423922 102.000000
23.443404 87.000000
23.462887 84.000000
23.482369 87.000000
23.501851 70.000000
23.521334 81.000000
23.540816 86.000000
23.560298 79.000000
23.579781 88.000000
23.599263 100.000000
23.618746 111.000000
23.638228 84.000000
23.657710 90.000000
23.677193 80.000000
23.696675 77.000000
23.716157 94.000000
23.735640 120.000000
23.755122 73.000000
23.774605 83.000000
23.794087 99.000000
23.813569 95.000000
23.833052 83.000000
23.852534 81.000000
23.872016 79.000000
23.891499 83.000000
23.910981 81.000000
23.930463 80.000000
23.949946 82.000000
23.969428 95.000000
23.988911 81.000000
24.008393 80.000000
24.027875 83.000000
24.047358 85.000000
24.066840 84.000000
24.086322 104.000000
24.105805 82.000000
24.125287 87.000000
24.144770 71.000000
24.164252 98.000000
24.183734 92.000000
24.203217 82.000000
24.222699 93.000000
24.242181 93.000000
24.261664 72.000000
24.281146 60.000000
24.300629 94.000000
24.320111 77.000000
24.339593 73.000000
24.359076 81.000000
24.378558 106.000000
24.398040 87.000000
24.417523 105.000000
24.437005 86.000000
24.456487 97.000000
24.475970 98.000000
24.495452 89.000000
24.514935 78.000000
24.534417 79.000000
24.553899 94.000000
24.573382 96.000000
24.592864 82.000000
24.612346 93.000000
24.631829 104.000000
24.651311 77.000000
24.670794 90.000000
24.690276 84.000000
24.709758 97.000000
24.729241 73.000000
24.748723 100.000000
24.768205 86.000000
24.787688 103.000000
24.807170 84.000000
24.826652 78.000000
24.846135 100.000000
24.865617 82.000000
24.885100 99.000000
24.904582 84.000000
24.924064 87.000000
24.943547 87.000000
24.963029 100.000000
24.982511 101.000000
25.001994 85.000000
25.021476 84.000000
25.040959 103.000000
25.060441 89.000000
25.079923 86.000000
25.099406 91.000000
25.118888 88.000000
25.138370 103.000000
25.157853 96.000000
25.177335 91.000000
25.196817 88.000000
25.216300 79.000000
25.235782 89.000000
25.255265 88.000000
25.274747 84.000000
25.294229 89.000000
25.313712 97.000000
25.333194 80.000000
25.352676 90.000000
25.372159 85.000000
25.391641 77.000000
25.411124 78.000000
25.430606 91.000000
25.450088 83.000000
25.469571 97.000000
25.489053 81.000000
25.508535 103.000000
25.528018 73.000000
25.547500 80.000000
25.566982 108.000000
25.586465 90.000000
25.605947 81.000000
25.625430 71.000000
25.644912 79.000000
25.664394 100.000000
25.683877 80.000000
25.703359 116.000000
25.722841 91.000000
25.742324 83.000000
25.761806 94.000000
25.781289 99.000000
25.800771 107.000000
25.820253 83.000000
25.839736 98.000000
25.859218 85.000000
25.878700 87.000000
25.898183 87.000000
25.917665 74.000000
25.937148 97.000000
25.956630 85.000000
25.976112 86.000000
25.995595 78.000000
26.015077 73.000000
26.034559 106.000000
26.054042 96.000000
26.073524 88.000000
26.093006 85.000000
26.112489 99.000000
26.131971 71.000000
26.151454 92.000000
26.170936 87.000000
26.190418 86.000000
26.209901 92.000000
26.229383 83.000000
26.248865 88.000000
26.268348 80.000000
26.287830 83.000000
26.307313 83.000000
26.326795 75.000000
26.346277 102.000000
26.365760 77.000000
26.385242 82.000000
26.404724 85.000000
26.424207 84.000000
26.443689 77.000000
26.463171 98.000000
26.482654 88.000000
26.502136 98.000000
26.521619 94.000000
26.541101 82.000000
26.560583 87.000000
26.580066 95.000000
26.599548 105.000000
26.619030 113.000000
26.638513 134.000000
26.657995 132.000000
26.677478 130.000000
26.696960 115.000000
26.716442 114.000000
26.735925 99.000000
26.755407 95.000000
26.774889 87.000000
26.794372 86.000000
26.813854 88.000000
26.833336 98.000000
26.852819 85.000000
26.872301 103.000000
26.891784 99.000000
26.911266 82.000000
26.930748 93.000000
26.950231 98.000000
26.969713 83.000000
26.989195 93.000000
27.008678 90.000000
27.028160 99.000000
27.047643 88.000000
27.067125 90.000000
27.086607 105.000000
27.106090 97.000000
27.125572 102.000000
27.145054 88.000000
27.164537 90.000000
27.184019 95.000000
27.203501 78.000000
27.222984 82.000000
27.242466 86.000000
27.261949 92.000000
27.281431 103.000000
27.300913 93.000000
27.320396 84.000000
27.339878 75.000000
27.359360 72.000000
27.378843 92.000000
27.398325 100.000000
27.417808 91.000000
27.437290 86.000000
27.456772 93.000000
27.476255 86.000000
27.495737 81.000000
27.515219 92.000000
27.534702 80.000000
27.554184 93.000000
27.573667 93.000000
27.593149 94.000000
27.612631 94.000000
27.632114 101.000000
27.651596 95.000000
27.671078 95.000000
27.690561 84.000000
27.710043 97.000000
27.729525 79.000000
27.749008 97.000000
27.768490 71.000000
27.787973 80.000000
27.807455 79.000000
27.826937 100.000000
27.846420 91.000000
27.865902 94.000000
27.885384 95.000000
27.904867 89.000000
27.924349 88.000000
27.943832 97.000000
27.963314 108.000000
27.982796 97.000000
28.002279 95.000000
28.021761 102.000000
28.041243 92.000000
28.060726 92.000000
28.080208 73.000000
28.099690 82.000000
28.119173 98.000000
28.138655 97.000000
28.158138 92.000000
28.177620 78.000000
28.197102 101.000000
28.216585 88.000000
28.236067 92.000000
28.255549 97.000000
28.275032 87.000000
28.294514 85.000000
28.313997 90.000000
28.333479 82.000000
28.352961 88.000000
28.372444 100.000000
28.391926 102.000000
28.411408 92.000000
28.430891 99.000000
28.450373 79.000000
28.469855 96.000000
28.489338 91.000000
28.508820 82.000000
28.528303 83.000000
28.547785 95.000000
28.567267 103.000000
28.586750 97.000000
28.606232 100.000000
28.625714 106.000000
28.645197 94.000000
28.664679 120.000000
28.684162 95.000000
28.703644 93.000000
28.723126 77.000000
28.742609 93.000000
28.762091 81.000000
28.781573 92.000000
28.801056 75.000000
28.820538 106.000000
28.840020 107.000000
28.859503 92.000000
28.878985 98.000000
28.898468 86.000000
28.917950 74.000000
28.937432 75.000000
28.956915 91.000000
28.976397 108.000000
28.995879 79.000000
29.015362 90.000000
29.034844 101.000000
29.054327 85.000000
29.073809 113.000000
29.093291 89.000000
29.112774 96.000000
29.132256 91.000000
29.151738 88.000000
29.171221 104.000000
29.190703 100.000000
29.210185 92.000000
29.229668 91.000000
29.249150 87.000000
29.268633 95.000000
29.288115 98.000000
29.307597 93.000000
29.327080 112.000000
29.346562 110.000000
29.366044 140.000000
29.385527 201.000000
29.405009 210.000000
29.424492 183.000000
29.443974 150.000000
29.463456 173.000000
29.482939 170.000000
29.502421 122.000000
29.521903 122.000000
29.541386 103.000000
29.560868 80.000000
29.580351 102.000000
29.599833 98.000000
29.619315 93.000000
29.638798 88.000000
29.658280 99.000000
29.677762 92.000000
29.697245 101.000000
29.716727 109.000000
29.736209 87.000000
29.755692 101.000000
29.775174 94.000000
29.794657 110.000000
29.814139 87.000000
29.833621 95.000000
29.853104 85.000000
29.872586 88.000000
29.892068 94.000000
29.911551 93.000000
29.931033 83.000000
29.950516 99.000000
29.969998 88.000000
29.989480 86.000000
30.008963 100.000000
30.028445 120.000000
30.047927 131.000000
30.067410 144.000000
30.086892 135.000000
30.106374 115.000000
30.125857 127.000000
30.145339 101.000000
30.164822 125.000000
30.184304 103.000000
30.203786 93.000000
30.223269 93.000000
30.242751 90.000000
30.262233 110.000000
30.281716 103.000000
30.301198 83.000000
30.320681 83.000000
30.340163 88.000000
30.359645 90.000000
30.379128 103.000000
30.398610 78.000000
30.418092 94.000000
30.437575 85.000000
30.457057 85.000000
30.476539 97.000000
30.496022 87.000000
30.515504 99.000000
30.534987 101.000000
30.554469 76.000000
30.573951 93.000000
30.593434 94.000000
30.612916 83.000000
30.632398 86.000000
30.651881 87.000000
30.671363 91.000000
30.690846 106.000000
30.710328 86.000000
30.729810 82.000000
30.749293 90.000000
30.768775 92.000000
30.788257 95.000000
30.807740 95.000000
30.827222 97.000000
30.846704 97.000000
30.866187 102.000000
30.885669 89.000000
30.905152 69.000000
30.924634 99.000000
30.944116 92.000000
30.963599 100.000000
30.983081 89.000000
31.002563 98.000000
31.022046 81.000000
31.041528 102.000000
31.061011 93.000000
31.080493 93.000000
31.099975 88.000000
31.119458 72.000000
31.138940 93.000000
31.158422 71.000000
31.177905 88.000000
31.197387 92.000000
31.216870 75.000000
31.236352 96.000000
31.255834 86.000000
31.275317 102.000000
31.294799 99.000000
31.314281 90.000000
31.333764 92.000000
31.353246 95.000000
31.372728 100.000000
31.392211 103.000000
31.411693 99.000000
31.431176 97.000000
31.450658 92.000000
31.470140 88.000000
31.489623 100.000000
31.509105 96.000000
31.528587 97.000000
31.548070 86.000000
31.567552 101.000000
31.587035 88.000000
31.606517 87.000000
31.625999 86.000000
31.645482 92.000000
31.664964 84.000000
31.684446 86.000000
31.703929 85.000000
31.723411 90.000000
31.742893 83.000000
31.762376 84.000000
31.781858 75.000000
31.801341 94.000000
31.820823 95.000000
31.840305 90.000000
31.859788 115.000000
31.879270 115.000000
31.898752 91.000000
31.918235 100.000000
31.937717 101.000000
31.957200 81.000000
31.976682 92.000000
31.996164 93.000000
32.015647 91.000000
32.035129 81.000000
32.054611 89.000000
32.074094 98.000000
32.093576 85.000000
32.113058 106.000000
32.132541 94.000000
32.152023 61.000000
32.171506 75.000000
32.190988 85.000000
32.210470 90.000000
32.229953 102.000000
32.249435 94.000000
32.268917 91.000000
32.288400 92.000000
32.307882 95.000000
32.327365 81.000000
32.346847 99.000000
32.366329 93.000000
32.385812 85.000000
32.405294 101.000000
32.424776 82.000000
32.444259 92.000000
32.463741 97.000000
32.483223 104.000000
32.502706 106.000000
32.522188 82.000000
32.541671 90.000000
32.561153 87.000000
32.580635 93.000000
32.600118 80.000000
32.619600 91.000000
32.639082 80.000000
32.658565 92.000000
32.678047 94.000000
32.697530 96.000000
32.717012 85.000000
32.736494 103.000000
32.755977 91.000000
32.775459 98.000000
32.794941 99.000000
32.814424 100.000000
32.833906 110.000000
32.853389 101.000000
32.872871 82.000000
32.892353 85.000000
32.911836 89.000000
32.931318 85.000000
32.950800 103.000000
32.970283 86.000000
32.989765 95.000000
33.009247 88.000000
33.028730 84.000000
33.048212 110.000000
33.067695 90.000000
33.087177 95.000000
33.106659 98.000000
33.126142 83.000000
33.145624 117.000000
33.165106 111.000000
33.184589 91.000000
33.204071 107.000000
33.223554 105.000000
33.243036 124.000000
33.262518 111.000000
33.282001 106.000000
33.301483 92.000000
33.320965 110.000000
33.340448 108.000000
33.359930 104.000000
33.379412 100.000000
33.398895 87.000000
33.418377 100.000000
33.437860 94.000000
33.457342 89.000000
33.476824 84.000000
33.496307 78.000000
33.515789 93.000000
33.535271 82.000000
33.554754 77.000000
33.574236 96.000000
33.593719 98.000000
33.613201 91.000000
33.632683 81.000000
33.652166 101.000000
33.671648 82.000000
33.691130 91.000000
33.710613 94.000000
33.730095 93.000000
33.749577 98.000000
33.769060 87.000000
33.788542 96.000000
33.808025 84.000000
33.827507 83.000000
33.846989 96.000000
33.866472 76.000000
33.885954 94.000000
33.905436 85.000000
33.924919 80.000000
33.944401 96.000000
33.963884 80.000000
33.983366 97.000000
34.002848 75.000000
34.022331 94.000000
34.041813 95.000000
34.061295 85.000000
34.080778 85.000000
34.100260 75.000000
34.119742 109.000000
34.139225 104.000000
34.158707 85.000000
34.178190 89.000000
34.197672 84.000000
34.217154 79.000000
34.236637 90.000000
34.256119 98.000000
34.275601 88.000000
34.295084 92.000000
34.314566 97.000000
34.334049 105.000000
34.353531 81.000000
34.373013 81.000000
34.392496 93.000000
34.411978 90.000000
34.431460 90.000000
34.450943 81.000000
34.470425 102.000000
34.489908 94.000000
34.509390 87.000000
34.528872 85.000000
34.548355 92.000000
34.567837 92.000000
34.587319 105.000000
34.606802 100.000000
34.626284 93.000000
34.645766 90.000000
34.665249 108.000000
34.684731 101.000000
34.704214 91.000000
34.723696 81.000000
34.743178 81.000000
34.762661 90.000000
34.782143 78.000000
34.801625 71.000000
34.821108 95.000000
34.840590 99.000000
34.860073 93.000000
34.879555 100.000000
34.899037 107.000000
34.918520 99.000000
34.938002 111.000000
34.957484 93.000000
34.976967 102.000000
34.996449 92.000000
35.015931 97.000000
35.035414 102.000000
35.054896 76.000000
35.074379 96.000000
35.093861 85.000000
35.113343 98.000000
35.132826 88.000000
35.152308 97.000000
35.171790 89.000000
35.191273 84.000000
35.210755 103.000000
35.230238 95.000000
35.249720 115.000000
35.269202 105.000000
35.288685 101.000000
35.308167 88.000000
35.327649 103.000000
35.347132 134.000000
35.366614 158.000000
35.386096 182.000000
35.405579 272.000000
35.425061 342.000000
35.444544 302.000000
35.464026 242.000000
35.483508 192.000000
35.502991 222.000000
35.522473 238.000000
35.541955 214.000000
35.561438 147.000000
35.580920 111.000000
35.600403 112.000000
35.619885 99.000000
35.639367 97.000000
35.658850 101.000000
35.678332 100.000000
35.697814 111.000000
35.717297 92.000000
35.736779 104.000000
35.756261 86.000000
35.775744 107.000000
35.795226 94.000000
35.814709 119.000000
35.834191 89.000000
35.853673 100.000000
35.873156 95.000000
35.892638 93.000000
35.912120 96.000000
35.931603 115.000000
35.951085 108.000000
35.970568 95.000000
35.990050 85.000000
36.009532 105.000000
36.029015 100.000000
36.048497 85.000000
36.067979 97.000000
36.087462 75.000000
36.106944 90.000000
36.126426 86.000000
36.145909 88.000000
36.165391 86.000000
36.184874 110.000000
36.204356 80.000000
36.223838 100.000000
36.243321 98.000000
36.262803 86.000000
36.282285 102.000000
36.301768 79.000000
36.321250 80.000000
36.340733 93.000000
36.360215 99.000000
36.379697 88.000000
36.399180 92.000000
36.418662 100.000000
36.438144 93.000000
36.457627 98.000000
36.477109 115.000000
36.496592 105.000000
36.516074 95.000000
36.535556 115.000000
36.555039 111.000000
36.574521 93.000000
36.594003 88.000000
36.613486 90.000000
36.632968 102.000000
36.652450 125.000000
36.671933 90.000000
36.691415 115.000000
36.710898 100.000000
36.730380 83.000000
36.749862 88.000000
36.769345 98.000000
36.788827 105.000000
36.808309 92.000000
36.827792 74.000000
36.847274 88.000000
36.866757 79.000000
36.886239 105.000000
36.905721 90.000000
36.925204 95.000000
36.944686 82.000000
36.964168 117.000000
36.983651 103.000000
37.003133 85.000000
37.022615 106.000000
37.042098 112.000000
37.061580 105.000000
37.081063 110.000000
37.100545 103.000000
37.120027 81.000000
37.139510 93.000000
37.158992 88.000000
37.178474 82.000000
37.197957 104.000000
37.217439 92.000000
37.236922 79.000000
37.256404 90.000000
37.275886 89.000000
37.295369 103.000000
37.314851 97.000000
37.334333 93.000000
37.353816 104.000000
37.373298 98.000000
37.392780 101.000000
37.412263 88.000000
37.431745 103.000000
37.451228 105.000000
37.470710 101.000000
37.490192 92.000000
37.509675 86.000000
37.529157 100.000000
37.548639 93.000000
37.568122 79.000000
37.587604 88.000000
37.607087 94.000000
37.626569 85.000000
37.646051 101.000000
37.665534 112.000000
37.685016 92.000000
37.704498 78.000000
37.723981 89.000000
37.743463 90.000000
37.762945 94.000000
37.782428 88.000000
37.801910 102.000000
37.821393 99.000000
37.840875 109.000000
37.860357 92.000000
37.879840 85.000000
37.899322 83.000000
37.918804 96.000000
37.938287 107.000000
37.957769 82.000000
37.977252 101.000000
37.996734 94.000000
38.016216 87.000000
38.035699 93.000000
38.055181 90.000000
38.074663 89.000000
38.094146 82.000000
38.113628 92.000000
38.133111 105.000000
38.152593 101.000000
38.172075 94.000000
38.191558 108.000000
38.211040 95.000000
38.230522 75.000000
38.250005 97.000000
38.269487 85.000000
38.288969 79.000000
38.308452 98.000000
38.327934 102.000000
38.347417 91.000000
38.366899 91.000000
38.386381 96.000000
38.405864 99.000000
38.425346 93.000000
38.444828 92.000000
38.464311 97.000000
38.483793 102.000000
38.503276 104.000000
38.522758 85.000000
38.542240 112.000000
38.561723 84.000000
38.581205 90.000000
38.600687 88.000000
38.620170 81.000000
38.639652 94.000000
38.659134 82.000000
38.678617 80.000000
38.698099 79.000000
38.717582 102.000000
38.737064 91.000000
38.756546 91.000000
38.776029 91.000000
38.795511 101.000000
38.814993 105.000000
38.834476 86.000000
38.853958 92.000000
38.873441 97.000000
38.892923 109.000000
38.912405 87.000000
38.931888 87.000000
38.951370 88.000000
38.970852 94.000000
38.990335 92.000000
39.009817 83.000000
39.029299 82.000000
39.048782 95.000000
39.068264 97.000000
39.087747 109.000000
39.107229 88.000000
39.126711 110.000000
39.146194 105.000000
39.165676 104.000000
39.185158 94.000000
39.204641 102.000000
39.224123 89.000000
39.243606 98.000000
39.263088 103.000000
39.282570 90.000000
39.302053 101.000000
39.321535 89.000000
39.341017 122.000000
39.360500 84.000000
39.379982 100.000000
39.399464 94.000000
39.418947 108.000000
39.438429 97.000000
39.457912 106.000000
39.477394 115.000000
39.496876 118.000000
39.516359 111.000000
39.535841 106.000000
39.555323 91.000000
39.574806 110.000000
39.594288 103.000000
39.613771 109.000000
39.633253 99.000000
39.652735 85.000000
39.672218 91.000000
39.691700 98.000000
39.711182 95.000000
39.730665 102.000000
39.750147 105.000000
39.769630 92.000000
39.789112 83.000000
39.808594 97.000000
39.828077 85.000000
39.847559 90.000000
39.867041 118.000000
39.886524 93.000000
39.906006 92.000000
39.925488 88.000000
39.944971 92.000000
39.964453 80.000000
39.983936 84.000000
40.003418 100.000000
40.022900 99.000000
40.042383 80.000000
40.061865 85.000000
40.081347 84.000000
40.100830 89.000000
40.120312 100.000000
40.139795 93.000000
40.159277 98.000000
40.178759 95.000000
40.198242 64.000000
40.217724 95.000000
40.237206 99.000000
40.256689 100.000000
40.276171 91.000000
40.295653 103.000000
40.315136 82.000000
40.334618 110.000000
40.354101 80.000000
40.373583 91.000000
40.393065 90.000000
40.412548 103.000000
40.432030 101.000000
40.451512 101.000000
40.470995 94.000000
40.490477 99.000000
40.509960 105.000000
40.529442 103.000000
40.548924 88.000000
40.568407 78.000000
40.587889 97.000000
40.607371 101.000000
40.626854 100.000000
40.646336 92.000000
40.665818 114.000000
40.685301 87.000000
40.704783 97.000000
40.724266 117.000000
40.743748 89.000000
40.763230 98.000000
40.782713 89.000000
40.802195 97.000000
40.821677 90.000000
40.841160 104.000000
40.860642 91.000000
40.880125 96.000000
40.899607 106.000000
40.919089 96.000000
40.938572 87.000000
40.958054 82.000000
40.977536 96.000000
40.997019 115.000000
41.016501 92.000000
41.035983 95.000000
41.055466 89.000000
41.074948 103.000000
41.094431 107.000000
41.113913 88.000000
41.133395 83.000000
41.152878 93.000000
41.172360 97.000000
41.191842 101.000000
41.211325 102.000000
41.230807 91.000000
41.250290 101.000000
41.269772 96.000000
41.289254 90.000000
41.308737 99.000000
41.328219 90.000000
41.347701 79.000000
41.367184 94.000000
41.386666 105.000000
41.406149 107.000000
41.425631 92.000000
41.445113 92.000000
41.464596 94.000000
41.484078 106.000000
41.503560 92.000000
41.523043 93.000000
41.542525 90.000000
41.562007 88.000000
41.581490 92.000000
41.600972 86.000000
41.620455 98.000000
41.639937 101.000000
41.659419 99.000000
41.678902 90.000000
41.698384 105.000000
41.717866 97.000000
41.737349 95.000000
41.756831 85.000000
41.776314 96.000000
41.795796 92.000000
41.815278 91.000000
41.834761 83.000000
41.854243 108.000000
41.873725 99.000000
41.893208 99.000000
41.912690 94.000000
41.932172 95.000000
41.951655 96.000000
41.971137 109.000000
41.990620 87.000000
42.010102 100.000000
42.029584 110.000000
42.049067 105.000000
42.068549 98.000000
42.088031 115.000000
42.107514 98.000000
42.126996 102.000000
42.146479 75.000000
42.165961 92.000000
42.185443 105.000000
42.204926 99.000000
42.224408 106.000000
42.243890 91.000000
42.263373 103.000000
42.282855 94.000000
42.302337 100.000000
42.321820 90.000000
42.341302 103.000000
42.360785 97.000000
42.380267 82.000000
42.399749 75.000000
42.419232 104.000000
42.438714 74.000000
42.458196 91.000000
42.477679 100.000000
42.497161 87.000000
42.516644 76.000000
42.536126 106.000000
42.555608 94.000000
42.575091 93.000000
42.594573 104.000000
42.614055 94.000000
42.633538 92.000000
42.653020 85.000000
42.672502 92.000000
42.691985 84.000000
42.711467 101.000000
42.730950 102.000000
42.750432 80.000000
42.769914 111.000000
42.789397 89.000000
42.808879 105.000000
42.828361 102.000000
42.847844 84.000000
42.867326 87.000000
42.886809 110.000000
42.906291 76.000000
42.925773 89.000000
42.945256 105.000000
42.964738 90.000000
42.984220 119.000000
43.003703 96.000000
43.023185 97.000000
43.042667 129.000000
43.062150 119.000000
43.081632 132.000000
43.101115 110.000000
43.120597 111.000000
43.140079 114.000000
43.159562 132.000000
43.179044 101.000000
43.198526 111.000000
43.218009 108.000000
43.237491 121.000000
43.256974 113.000000
43.276456 118.000000
43.295938 90.000000
43.315421 110.000000
43.334903 100.000000
43.354385 102.000000
43.373868 97.000000
43.393350 103.000000
43.412833 81.000000
43.432315 104.000000
43.451797 97.000000
43.471280 90.000000
43.490762 88.000000
43.510244 92.000000
43.529727 115.000000
43.549209 92.000000
43.568691 107.000000
43.588174 88.000000
43.607656 101.000000
43.627139 86.000000
43.646621 85.000000
43.666103 100.000000
43.685586 88.000000
43.705068 99.000000
43.724550 79.000000
43.744033 102.000000
43.763515 79.000000
43.782998 103.000000
43.802480 99.000000
43.821962 92.000000
43.841445 111.000000
43.860927 84.000000
43.880409 94.000000
43.899892 100.000000
43.919374 91.000000
43.938856 111.000000
43.958339 85.000000
43.977821 96.000000
43.997304 96.000000
44.016786 86.000000
44.036268 97.000000
44.055751 112.000000
44.075233 90.000000
44.094715 97.000000
44.114198 93.000000
44.133680 103.000000
44.153163 92.000000
44.172645 114.000000
44.192127 89.000000
44.211610 94.000000
44.231092 92.000000
44.250574 107.000000
44.270057 102.000000
44.289539 101.000000
44.309021 74.000000
44.328504 100.000000
44.347986 100.000000
44.367469 88.000000
44.386951 95.000000
44.406433 101.000000
44.425916 90.000000
44.445398 98.000000
44.464880 98.000000
44.484363 97.000000
44.503845 96.000000
44.523328 94.000000
44.542810 115.000000
44.562292 83.000000
44.581775 71.000000
44.601257 71.000000
44.620739 90.000000
44.640222 97.000000
44.659704 98.000000
44.679186 99.000000
44.698669 91.000000
44.718151 110.000000
44.737634 101.000000
44.757116 106.000000
44.776598 97.000000
44.796081 102.000000
44.815563 102.000000
44.835045 90.000000
44.854528 106.000000
44.874010 77.000000
44.893493 88.000000
44.912975 109.000000
44.932457 100.000000
44.951940 103.000000
44.971422 95.000000
44.990904 87.000000
45.010387 103.000000
45.029869 86.000000
45.049352 103.000000
45.068834 87.000000
45.088316 86.000000
45.107799 91.000000
45.127281 93.000000
45.146763 98.000000
45.166246 103.000000
45.185728 91.000000
45.205210 95.000000
45.224693 98.000000
45.244175 83.000000
45.263658 92.000000
45.283140 110.000000
45.302622 110.000000
45.322105 119.000000
45.341587 92.000000
45.361069 101.000000
45.380552 102.000000
45.400034 106.000000
45.419517 95.000000
45.438999 97.000000
45.458481 95.000000
45.477964 92.000000
45.497446 77.000000
45.516928 95.000000
45.536411 88.000000
45.555893 113.000000
45.575375 92.000000
45.594858 88.000000
45.614340 104.000000
45.633823 82.000000
45.653305 87.000000
45.672787 95.000000
45.692270 90.000000
45.711752 99.000000
45.731234 86.000000
45.750717 100.000000
45.770199 86.000000
45.789682 97.000000
45.809164 75.000000
45.828646 79.000000
45.848129 78.000000
45.867611 108.000000
45.887093 92.000000
45.906576 106.000000
45.926058 80.000000
45.945540 77.000000
45.965023 91.000000
45.984505 98.000000
46.003988 122.000000
46.023470 89.000000
46.042952 94.000000
46.062435 87.000000
46.081917 100.000000
46.101399 90.000000
46.120882 110.000000
46.140364 92.000000
46.159847 100.000000
46.179329 96.000000
46.198811 86.000000
46.218294 103.000000
46.237776 114.000000
46.257258 79.000000
46.276741 88.000000
46.296223 114.000000
46.315705 81.000000
46.335188 97.000000
46.354670 100.000000
46.374153 102.000000
46.393635 109.000000
46.413117 110.000000
46.432600 94.000000
46.452082 105.000000
46.471564 96.000000
46.491047 115.000000
46.510529 100.000000
46.530012 106.000000
46.549494 108.000000
46.568976 105.000000
46.588459 107.000000
46.607941 118.000000
46.627423 92.000000
46.646906 108.000000
46.666388 113.000000
46.685871 81.000000
46.705353 106.000000
46.724835 104.000000
46.744318 88.000000
46.763800 95.000000
46.783282 93.000000
46.802765 81.000000
46.822247 104.000000
46.841729 86.000000
46.861212 116.000000
46.880694 105.000000
46.900177 76.000000
46.919659 89.000000
46.939141 84.000000
46.958624 68.000000
46.978106 98.000000
46.997588 87.000000
47.017071 95.000000
47.036553 100.000000
47.056036 85.000000
47.075518 90.000000
47.095000 110.000000
47.114483 93.000000
47.133965 78.000000
47.153447 89.000000
47.172930 84.000000
47.192412 86.000000
47.211894 96.000000
47.231377 79.000000
47.250859 115.000000
47.270342 103.000000
47.289824 104.000000
47.309306 92.000000
47.328789 104.000000
47.348271 83.000000
47.367753 105.000000
47.387236 80.000000
47.406718 93.000000
47.426201 99.000000
47.445683 102.000000
47.465165 100.000000
47.484648 96.000000
47.504130 88.000000
47.523612 95.000000
47.543095 93.000000
47.562577 122.000000
47.582059 105.000000
47.601542 106.000000
47.621024 101.000000
47.640507 113.000000
47.659989 111.000000
47.679471 99.000000
47.698954 110.000000
47.718436 90.000000
47.737918 110.000000
47.757401 101.000000
47.776883 100.000000
47.796366 88.000000
47.815848 96.000000
47.835330 99.000000
47.854813 90.000000
47.874295 98.000000
47.893777 88.000000
47.913260 113.000000
47.932742 89.000000
47.952224 81.000000
47.971707 84.000000
47.991189 104.000000
48.010672 90.000000
48.030154 98.000000
48.049636 94.000000
48.069119 107.000000
48.088601 97.000000
48.108083 104.000000
48.127566 101.000000
48.147048 89.000000
48.166531 113.000000
48.186013 93.000000
48.205495 88.000000
48.224978 87.000000
48.244460 99.000000
48.263942 113.000000
48.283425 83.000000
48.302907 99.000000
48.322389 92.000000
48.341872 106.000000
48.361354 89.000000
48.380837 102.000000
48.400319 93.000000
48.419801 100.000000
48.439284 90.000000
48.458766 99.000000
48.478248 105.000000
48.497731 101.000000
48.517213 127.000000
48.536696 116.000000
48.556178 121.000000
48.575660 117.000000
48.595143 118.000000
48.614625 116.000000
48.634107 117.000000
48.653590 100.000000
48.673072 101.000000
48.692555 116.000000
48.712037 109.000000
48.731519 110.000000
48.751002 131.000000
48.770484 92.000000
48.789966 93.000000
48.809449 103.000000
48.828931 93.000000
48.848413 103.000000
48.867896 99.000000
48.887378 100.000000
48.906861 100.000000
48.926343 106.000000
48.945825 98.000000
48.965308 96.000000
48.984790 107.000000
49.004272 85.000000
49.023755 110.000000
49.043237 93.000000
49.062720 97.000000
49.082202 97.000000
49.101684 96.000000
49.121167 111.000000
49.140649 114.000000
49.160131 103.000000
49.179614 99.000000
49.199096 93.000000
49.218578 105.000000
49.238061 106.000000
49.257543 97.000000
49.277026 93.000000
49.296508 110.000000
49.315990 101.000000
49.335473 88.000000
49.354955 103.000000
49.374437 96.000000
49.393920 97.000000
49.413402 101.000000
49.432885 129.000000
49.452367 109.000000
49.471849 115.000000
49.491332 82.000000
49.510814 105.000000
49.530296 103.000000
49.549779 113.000000
49.569261 104.000000
49.588743 106.000000
49.608226 110.000000
49.627708 78.000000
49.647191 104.000000
49.666673 92.000000
49.686155 101.000000
49.705638 101.000000
49.725120 91.000000
49.744602 91.000000
49.764085 90.000000
49.783567 91.000000
49.803050 107.000000
49.822532 99.000000
49.842014 86.000000
49.861497 83.000000
49.880979 97.000000
49.900461 91.000000
49.919944 110.000000
49.939426 99.000000
49.958908 74.000000
49.978391 86.000000
49.997873 97.000000
50.017356 90.000000
50.036838 108.000000
50.056320 92.000000
50.075803 107.000000
50.095285 102.000000
50.114767 103.000000
50.134250 100.000000
50.153732 117.000000
50.173215 93.000000
50.192697 102.000000
50.212179 94.000000
50.231662 72.000000
50.251144 114.000000
50.270626 84.000000
50.290109 94.000000
50.309591 95.000000
50.329074 98.000000
50.348556 99.000000
50.368038 120.000000
50.387521 106.000000
50.407003 110.000000
50.426485 102.000000
50.445968 93.000000
50.465450 90.000000
50.484932 97.000000
50.504415 90.000000
50.523897 93.000000
50.543380 99.000000
50.562862 85.000000
50.582344 93.000000
50.601827 81.000000
50.621309 89.000000
50.640791 88.000000
50.660274 98.000000
50.679756 95.000000
50.699239 92.000000
50.718721 91.000000
50.738203 100.000000
50.757686 85.000000
50.777168 93.000000
50.796650 90.000000
50.816133 104.000000
50.835615 84.000000
50.855097 102.000000
50.874580 109.000000
50.894062 85.000000
50.913545 89.000000
50.933027 106.000000
50.952509 109.000000
50.971992 94.000000
50.991474 107.000000
51.010956 100.000000
51.030439 94.000000
51.049921 95.000000
51.069404 90.000000
51.088886 106.000000
51.108368 100.000000
51.127851 93.000000
51.147333 100.000000
51.166815 88.000000
51.186298 100.000000
51.205780 110.000000
51.225262 94.000000
51.244745 85.000000
51.264227 105.000000
51.283710 81.000000
51.303192 95.000000
51.322674 83.000000
51.342157 113.000000
51.361639 76.000000
51.381121 116.000000
51.400604 91.000000
51.420086 105.000000
51.439569 100.000000
51.459051 101.000000
51.478533 109.000000
51.498016 81.000000
51.517498 106.000000
51.536980 99.000000
51.556463 96.000000
51.575945 85.000000
51.595427 102.000000
51.614910 96.000000
51.634392 109.000000
51.653875 104.000000
51.673357 107.000000
51.692839 91.000000
51.712322 94.000000
51.731804 104.000000
51.751286 98.000000
51.770769 91.000000
51.790251 104.000000
51.809734 101.000000
51.829216 106.000000
51.848698 97.000000
51.868181 109.000000
51.887663 105.000000
51.907145 80.000000
51.926628 119.000000
51.946110 109.000000
51.965593 95.000000
51.985075 99.000000
52.004557 93.000000
52.024040 94.000000
52.043522 99.000000
52.063004 114.000000
52.082487 92.000000
52.101969 111.000000
52.121451 90.000000
52.140934 93.000000
52.160416 95.000000
52.179899 101.000000
52.199381 79.000000
52.218863 97.000000
52.238346 110.000000
52.257828 109.000000
52.277310 80.000000
52.296793 100.000000
52.316275 92.000000
52.335758 103.000000
52.355240 92.000000
52.374722 87.000000
52.394205 114.000000
52.413687 99.000000
52.433169 83.000000
52.452652 105.000000
52.472134 82.000000
52.491616 129.000000
52.511099 113.000000
52.530581 92.000000
52.550064 94.000000
52.569546 107.000000
52.589028 119.000000
52.608511 98.000000
52.627993 112.000000
52.647475 97.000000
52.666958 97.000000
52.686440 112.000000
52.705923 96.000000
52.725405 85.000000
52.744887 99.000000
52.764370 103.000000
52.783852 90.000000
52.803334 98.000000
52.822817 107.000000
52.842299 83.000000
52.861781 99.000000
52.881264 89.000000
52.900746 93.000000
52.920229 81.000000
52.939711 112.000000
52.959193 85.000000
52.978676 108.000000
52.998158 97.000000
53.017640 98.000000
53.037123 99.000000
53.056605 103.000000
53.076088 97.000000
53.095570 99.000000
53.115052 108.000000
53.134535 92.000000
53.154017 92.000000
53.173499 129.000000
53.192982 97.000000
53.212464 95.000000
53.231946 95.000000
53.251429 106.000000
53.270911 115.000000
53.290394 92.000000
53.309876 91.000000
53.329358 125.000000
53.348841 104.000000
53.368323 97.000000
53.387805 101.000000
53.407288 128.000000
53.426770 128.000000
53.446253 114.000000
53.465735 112.000000
53.485217 114.000000
53.504700 92.000000
53.524182 121.000000
53.543664 96.000000
53.563147 109.000000
53.582629 99.000000
53.602112 101.000000
53.621594 94.000000
53.641076 99.000000
53.660559 96.000000
53.680041 101.000000
53.699523 89.000000
53.719006 96.000000
53.738488 111.000000
53.757970 97.000000
53.777453 88.000000
53.796935 116.000000
53.816418 104.000000
53.835900 81.000000
53.855382 110.000000
53.874865 101.000000
53.894347 104.000000
53.913829 94.000000
53.933312 103.000000
53.952794 86.000000
53.972277 97.000000
53.991759 87.000000
54.011241 104.000000
54.030724 105.000000
54.050206 106.000000
54.069688 112.000000
54.089171 94.000000
54.108653 112.000000
54.128135 98.000000
54.147618 103.000000
54.167100 85.000000
54.186583 92.000000
54.206065 99.000000
54.225547 87.000000
54.245030 94.000000
54.264512 102.000000
54.283994 93.000000
54.303477 97.000000
54.322959 91.000000
54.342442 97.000000
54.361924 99.000000
54.381406 90.000000
54.400889 104.000000
54.420371 108.000000
54.439853 79.000000
54.459336 93.000000
54.478818 103.000000
54.498300 88.000000
54.517783 88.000000
54.537265 82.000000
54.556748 95.000000
54.576230 105.000000
54.595712 92.000000
54.615195 101.000000
54.634677 104.000000
54.654159 104.000000
54.673642 95.000000
54.693124 90.000000
54.712607 78.000000
54.732089 100.000000
54.751571 92.000000
54.771054 104.000000
54.790536 96.000000
54.810018 103.000000
54.829501 105.000000
54.848983 89.000000
54.868465 106.000000
54.887948 105.000000
54.907430 92.000000
54.926913 102.000000
54.946395 103.000000
54.965877 97.000000
54.985360 102.000000
55.004842 105.000000
55.024324 106.000000
55.043807 110.000000
55.063289 106.000000
55.082772 84.000000
55.102254 96.000000
55.121736 116.000000
55.141219 96.000000
55.160701 111.000000
55.180183 97.000000
55.199666 96.000000
55.219148 107.000000
55.238630 108.000000
55.258113 95.000000
55.277595 96.000000
55.297078 112.000000
55.316560 102.000000
55.336042 95.000000
55.355525 102.000000
55.375007 107.000000
55.394489 101.000000
55.413972 119.000000
55.433454 107.000000
55.452937 90.000000
55.472419 116.000000
55.491901 100.000000
55.511384 99.000000
55.530866 95.000000
55.550348 107.000000
55.569831 87.000000
55.589313 99.000000
55.608796 109.000000
55.628278 109.000000
55.647760 101.000000
55.667243 106.000000
55.686725 105.000000
55.706207 96.000000
55.725690 103.000000
55.745172 110.000000
55.764654 87.000000
55.784137 109.000000
55.803619 108.000000
55.823102 95.000000
55.842584 95.000000
55.862066 104.000000
55.881549 97.000000
55.901031 100.000000
55.920513 98.000000
55.939996 91.000000
55.959478 103.000000
55.978961 98.000000
55.998443 103.000000
56.017925 99.000000
56.037408 92.000000
56.056890 98.000000
56.076372 99.000000
56.095855 103.000000
56.115337 99.000000
56.134819 91.000000
56.154302 99.000000
56.173784 99.000000
56.193267 77.000000
56.212749 116.000000
56.232231 104.000000
56.251714 101.000000
56.271196 93.000000
56.290678 93.000000
56.310161 99.000000
56.329643 81.000000
56.349126 98.000000
56.368608 89.000000
56.388090 99.000000
56.407573 102.000000
56.427055 100.000000
56.446537 82.000000
56.466020 116.000000
56.485502 90.000000
56.504984 95.000000
56.524467 92.000000
56.543949 96.000000
56.563432 82.000000
56.582914 112.000000
56.602396 112.000000
56.621879 113.000000
56.641361 98.000000
56.660843 111.000000
56.680326 97.000000
56.699808 111.000000
56.719291 99.000000
56.738773 103.000000
56.758255 114.000000
56.777738 107.000000
56.797220 96.000000
56.816702 96.000000
56.836185 104.000000
56.855667 113.000000
56.875149 133.000000
56.894632 135.000000
56.914114 143.000000
56.933597 142.000000
56.953079 167.000000
56.972561 138.000000
56.992044 134.000000
57.011526 118.000000
57.031008 140.000000
57.050491 108.000000
57.069973 131.000000
57.089456 123.000000
57.108938 139.000000
57.128420 127.000000
57.147903 100.000000
57.167385 122.000000
57.186867 124.000000
57.206350 102.000000
57.225832 104.000000
57.245315 114.000000
57.264797 89.000000
57.284279 114.000000
57.303762 107.000000
57.323244 95.000000
57.342726 103.000000
57.362209 101.000000
57.381691 87.000000
57.401173 99.000000
57.420656 109.000000
57.440138 86.000000
57.459621 89.000000
57.479103 117.000000
57.498585 109.000000
57.518068 100.000000
57.537550 103.000000
57.557032 102.000000
57.576515 121.000000
57.595997 108.000000
57.615480 109.000000
57.634962 99.000000
57.654444 94.000000
57.673927 85.000000
57.693409 119.000000
57.712891 108.000000
57.732374 103.000000
57.751856 101.000000
57.771338 102.000000
57.790821 99.000000
57.810303 83.000000
57.829786 103.000000
57.849268 115.000000
57.868750 102.000000
57.888233 93.000000
57.907715 92.000000
57.927197 88.000000
57.946680 92.000000
57.966162 102.000000
57.985645 101.000000
58.005127 124.000000
58.024609 94.000000
58.044092 82.000000
58.063574 92.000000
58.083056 113.000000
58.102539 95.000000
58.122021 104.000000
58.141503 97.000000
58.160986 99.000000
58.180468 90.000000
58.199951 110.000000
58.219433 93.000000
58.238915 92.000000
58.258398 103.000000
58.277880 104.000000
58.297362 112.000000
58.316845 108.000000
58.336327 91.000000
58.355810 123.000000
58.375292 98.000000
58.394774 103.000000
58.414257 97.000000
58.433739 99.000000
58.453221 96.000000
58.472704 95.000000
58.492186 101.000000
58.511668 106.000000
58.531151 105.000000
58.550633 114.000000
58.570116 84.000000
58.589598 100.000000
58.609080 90.000000
58.628563 91.000000
58.648045 106.000000
58.667527 97.000000
58.687010 108.000000
58.706492 89.000000
58.725975 93.000000
58.745457 97.000000
58.764939 94.000000
58.784422 100.000000
58.803904 103.000000
58.823386 108.000000
58.842869 107.000000
58.862351 89.000000
58.881834 89.000000
58.901316 97.000000
58.920798 87.000000
58.940281 100.000000
58.959763 115.000000
58.979245 112.000000
58.998728 79.000000
59.018210 101.000000
59.037692 83.000000
59.057175 109.000000
59.076657 98.000000
59.096140 103.000000
59.115622 112.000000
59.135104 90.000000
59.154587 105.000000
59.174069 124.000000
59.193551 91.000000
59.213034 86.000000
59.232516 106.000000
59.251999 89.000000
59.271481 102.000000
59.290963 100.000000
59.310446 105.000000
59.329928 106.000000
59.349410 121.000000
59.368893 98.000000
59.388375 101.000000
59.407857 96.000000
59.427340 94.000000
59.446822 109.000000
59.466305 99.000000
59.485787 90.000000
59.505269 111.000000
59.524752 104.000000
59.544234 97.000000
59.563716 91.000000
59.583199 98.000000
59.602681 91.000000
59.622164 93.000000
59.641646 106.000000
59.661128 112.000000
59.680611 86.000000
59.700093 109.000000
59.719575 115.000000
59.739058 116.000000
59.758540 99.000000
59.778022 105.000000
59.797505 97.000000
59.816987 79.000000
59.836470 81.000000
59.855952 95.000000
59.875434 94.000000
59.894917 90.000000
59.914399 104.000000
59.933881 104.000000
59.953364 113.000000
59.972846 103.000000
59.992329 82.000000
60.011811 107.000000
60.031293 115.000000
60.050776 103.000000
60.070258 95.000000
60.089740 92.000000
60.109223 90.000000
60.128705 106.000000
60.148187 100.000000
60.167670 105.000000
60.187152 105.000000
60.206635 101.000000
60.226117 105.000000
60.245599 98.000000
60.265082 90.000000
60.284564 109.000000
60.304046 101.000000
60.323529 82.000000
60.343011 93.000000
60.362494 106.000000
60.381976 96.000000
60.401458 99.000000
60.420941 99.000000
60.440423 104.000000
60.459905 100.000000
60.479388 89.000000
60.498870 93.000000
60.518352 119.000000
60.537835 108.000000
60.557317 119.000000
60.576800 105.000000
60.596282 104.000000
60.615764 106.000000
60.635247 100.000000
60.654729 86.000000
60.674211 112.000000
60.693694 114.000000
60.713176 89.000000
60.732659 135.000000
60.752141 101.000000
60.771623 111.000000
60.791106 85.000000
60.810588 120.000000
60.830070 107.000000
60.849553 93.000000
60.869035 106.000000
60.888518 96.000000
60.908000 97.000000
60.927482 96.000000
60.946965 101.000000
60.966447 105.000000
60.985929 105.000000
61.005412 111.000000
61.024894 103.000000
61.044376 105.000000
61.063859 97.000000
61.083341 109.000000
61.102824 103.000000
61.122306 104.000000
61.141788 95.000000
61.161271 92.000000
61.180753 98.000000
61.200235 107.000000
61.219718 106.000000
61.239200 96.000000
61.258683 102.000000
61.278165 103.000000
61.297647 99.000000
61.317130 100.000000
61.336612 119.000000
61.356094 107.000000
61.375577 114.000000
61.395059 107.000000
61.414541 88.000000
61.434024 90.000000
61.453506 97.000000
61.472989 79.000000
61.492471 100.000000
61.511953 102.000000
61.531436 115.000000
61.550918 100.000000
61.570400 73.000000
61.589883 105.000000
61.609365 88.000000
61.628848 100.000000
61.648330 92.000000
61.667812 106.000000
61.687295 121.000000
61.706777 99.000000
61.726259 97.000000
61.745742 95.000000
61.765224 97.000000
61.784706 94.000000
61.804189 106.000000
61.823671 104.000000
61.843154 108.000000
61.862636 97.000000
61.882118 80.000000
61.901601 89.000000
61.921083 105.000000
61.940565 99.000000
61.960048 88.000000
61.979530 104.000000
61.999013 102.000000
62.018495 117.000000
62.037977 124.000000
62.057460 98.000000
62.076942 93.000000
62.096424 92.000000
62.115907 97.000000
62.135389 111.000000
62.154871 104.000000
62.174354 100.000000
62.193836 98.000000
62.213319 88.000000
62.232801 114.000000
62.252283 100.000000
62.271766 105.000000
62.291248 103.000000
62.310730 98.000000
62.330213 98.000000
62.349695 111.000000
62.369178 112.000000
62.388660 130.000000
62.408142 93.000000
62.427625 96.000000
62.447107 114.000000
62.466589 136.000000
62.486072 119.000000
62.505554 150.000000
62.525037 152.000000
62.544519 154.000000
62.564001 127.000000
62.583484 137.000000
62.602966 122.000000
62.622448 116.000000
62.641931 128.000000
62.661413 130.000000
62.680895 128.000000
62.700378 124.000000
62.719860 119.000000
62.739343 113.000000
62.758825 101.000000
62.778307 99.000000
62.797790 114.000000
62.817272 101.000000
62.836754 107.000000
62.856237 101.000000
62.875719 88.000000
62.895202 122.000000
62.914684 91.000000
62.934166 94.000000
62.953649 110.000000
62.973131 130.000000
62.992613 115.000000
63.012096 114.000000
63.031578 106.000000
63.051060 95.000000
63.070543 101.000000
63.090025 101.000000
63.109508 100.000000
63.128990 108.000000
63.148472 103.000000
63.167955 119.000000
63.187437 88.000000
63.206919 93.000000
63.226402 84.000000
63.245884 109.000000
63.265367 100.000000
63.284849 108.000000
63.304331 107.000000
63.323814 101.000000
63.343296 115.000000
63.362778 107.000000
63.382261 106.000000
63.401743 95.000000
63.421225 90.000000
63.440708 120.000000
63.460190 87.000000
63.479673 104.000000
63.499155 88.000000
63.518637 100.000000
63.538120 99.000000
63.557602 93.000000
63.577084 100.000000
63.596567 100.000000
63.616049 92.000000
63.635532 95.000000
63.655014 99.000000
63.674496 101.000000
63.693979 95.000000
63.713461 91.000000
63.732943 113.000000
63.752426 85.000000
63.771908 86.000000
63.791390 102.000000
63.810873 105.000000
63.830355 121.000000
63.849838 87.000000
63.869320 85.000000
63.888802 115.000000
63.908285 91.000000
63.927767 99.000000
63.947249 97.000000
63.966732 112.000000
63.986214 107.000000
64.005697 112.000000
64.025179 112.000000
64.044661 100.000000
64.064144 102.000000
64.083626 111.000000
64.103108 124.000000
64.122591 107.000000
64.142073 110.000000
64.161556 87.000000
64.181038 99.000000
64.200520 79.000000
64.220003 102.000000
64.239485 93.000000
64.258967 90.000000
64.278450 101.000000
64.297932 111.000000
64.317414 117.000000
64.336897 116.000000
64.356379 91.000000
64.375862 108.000000
64.395344 94.000000
64.414826 97.000000
64.434309 112.000000
64.453791 105.000000
64.473273 90.000000
64.492756 118.000000
64.512238 114.000000
64.531721 78.000000
64.551203 121.000000
64.570685 98.000000
64.590168 100.000000
64.609650 124.000000
64.629132 106.000000
64.648615 105.000000
64.668097 87.000000
64.687579 90.000000
64.707062 107.000000
64.726544 105.000000
64.746027 98.000000
64.765509 107.000000
64.784991 99.000000
64.804474 103.000000
64.823956 112.000000
64.843438 92.000000
64.862921 89.000000
64.882403 109.000000
64.901886 101.000000
64.921368 113.000000
64.940850 95.000000
64.960333 102.000000
64.979815 89.000000
64.999297 86.000000
65.018780 116.000000
65.038262 105.000000
65.057744 109.000000
65.077227 114.000000
65.096709 99.000000
65.116192 93.000000
65.135674 96.000000
65.155156 103.000000
65.174639 92.000000
65.194121 86.000000
65.213603 107.000000
65.233086 88.000000
65.252568 102.000000
65.272051 87.000000
65.291533 114.000000
65.311015 102.000000
65.330498 110.000000
65.349980 94.000000
65.369462 105.000000
65.388945 111.000000
65.408427 97.000000
65.427909 110.000000
65.447392 95.000000
65.466874 106.000000
65.486357 106.000000
65.505839 102.000000
65.525321 103.000000
65.544804 103.000000
65.564286 103.000000
65.583768 103.000000
65.603251 108.000000
65.622733 86.000000
65.642216 101.000000
65.661698 115.000000
65.681180 112.000000
65.700663 121.000000
65.720145 105.000000
65.739627 107.000000
65.759110 120.000000
65.778592 99.000000
65.798075 130.000000
65.817557 93.000000
65.837039 113.000000
65.856522 107.000000
65.876004 103.000000
65.895486 100.000000
65.914969 106.000000
65.934451 101.000000
65.953933 94.000000
65.973416 94.000000
65.992898 88.000000
66.012381 99.000000
66.031863 93.000000
66.051345 113.000000
66.070828 104.000000
66.090310 91.000000
66.109792 89.000000
66.129275 104.000000
66.148757 114.000000
66.168240 111.000000
66.187722 112.000000
66.207204 97.000000
66.226687 114.000000
66.246169 108.000000
66.265651 107.000000
66.285134 91.000000
66.304616 101.000000
66.324098 96.000000
66.343581 104.000000
66.363063 112.000000
66.382546 104.000000
66.402028 95.000000
66.421510 97.000000
66.440993 87.000000
66.460475 105.000000
66.479957 105.000000
66.499440 105.000000
66.518922 86.000000
66.538405 88.000000
66.557887 100.000000
66.577369 87.000000
66.596852 112.000000
66.616334 102.000000
66.635816 105.000000
66.655299 100.000000
66.674781 114.000000
66.694263 101.000000
66.713746 125.000000
66.733228 101.000000
66.752711 113.000000
66.772193 90.000000
66.791675 91.000000
66.811158 102.000000
66.830640 114.000000
66.850122 92.000000
66.869605 89.000000
66.889087 104.000000
66.908570 85.000000
66.928052 111.000000
66.947534 113.000000
66.967017 103.000000
66.986499 107.000000
67.005981 97.000000
67.025464 100.000000
67.044946 124.000000
67.064428 107.000000
67.083911 103.000000
67.103393 98.000000
67.122876 103.000000
67.142358 92.000000
67.161840 104.000000
67.181323 105.000000
67.200805 94.000000
67.220287 97.000000
67.239770 72.000000
67.259252 99.000000
67.278735 117.000000
67.298217 111.000000
67.317699 95.000000
67.337182 108.000000
67.356664 111.000000
67.376146 84.000000
67.395629 116.000000
67.415111 106.000000
67.434593 137.000000
67.454076 91.000000
67.473558 102.000000
67.493041 94.000000
67.512523 96.000000
67.532005 99.000000
67.551488 120.000000
67.570970 104.000000
67.590452 84.000000
67.609935 117.000000
67.629417 90.000000
67.648900 115.000000
67.668382 98.000000
67.687864 100.000000
67.707347 104.000000
67.726829 109.000000
67.746311 101.000000
67.765794 104.000000
67.785276 103.000000
67.804759 94.000000
67.824241 93.000000
67.843723 109.000000
67.863206 110.000000
67.882688 112.000000
67.902170 115.000000
67.921653 107.000000
67.941135 96.000000
67.960617 117.000000
67.980100 104.000000
67.999582 115.000000
68.019065 95.000000
68.038547 104.000000
68.058029 115.000000
68.077512 88.000000
68.096994 132.000000
68.116476 113.000000
68.135959 110.000000
68.155441 104.000000
68.174924 93.000000
68.194406 100.000000
68.213888 93.000000
68.233371 104.000000
68.252853 112.000000
68.272335 102.000000
68.291818 94.000000
68.311300 110.000000
68.330782 100.000000
68.350265 96.000000
68.369747 96.000000
68.389230 107.000000
68.408712 91.000000
68.428194 91.000000
68.447677 117.000000
68.467159 104.000000
68.486641 105.000000
68.506124 99.000000
68.525606 88.000000
68.545089 95.000000
68.564571 92.000000
68.584053 99.000000
68.603536 103.000000
68.623018 92.000000
68.642500 110.000000
68.661983 104.000000
68.681465 82.000000
68.700947 100.000000
68.720430 119.000000
68.739912 90.000000
68.759395 101.000000
68.778877 102.000000
68.798359 106.000000
68.817842 105.000000
68.837324 113.000000
68.856806 111.000000
68.876289 93.000000
68.895771 100.000000
68.915254 88.000000
68.934736 95.000000
68.954218 99.000000
68.973701 110.000000
68.993183 105.000000
69.012665 105.000000
69.032148 133.000000
69.051630 121.000000
69.071112 114.000000
69.090595 93.000000
69.110077 92.000000
69.129560 84.000000
69.149042 99.000000
69.168524 92.000000
69.188007 116.000000
69.207489 109.000000
69.226971 102.000000
69.246454 111.000000
69.265936 108.000000
69.285419 95.000000
69.304901 115.000000
69.324383 101.000000
69.343866 104.000000
69.363348 123.000000
69.382830 124.000000
69.402313 96.000000
69.421795 124.000000
69.441278 120.000000
69.460760 97.000000
69.480242 107.000000
69.499725 96.000000
69.519207 112.000000
69.538689 105.000000
69.558172 95.000000
69.577654 103.000000
69.597136 102.000000
69.616619 111.000000
69.636101 97.000000
69.655584 84.000000
69.675066 100.000000
69.694548 112.000000
69.714031 114.000000
69.733513 95.000000
69.752995 98.000000
69.772478 136.000000
69.791960 105.000000
69.811443 125.000000
69.830925 116.000000
69.850407 104.000000
69.869890 88.000000
69.889372 97.000000
69.908854 96.000000
69.928337 115.000000
69.947819 103.000000
69.967301 106.000000
69.986784 108.000000
70.006266 118.000000
70.025749 101.000000
