4.000000 3665.000000
4.019500 3844.000000
4.039000 3710.000000
4.058400 3595.000000
4.077900 3565.000000
4.097400 3547.000000
4.116900 3483.000000
4.136400 3478.000000
4.155900 3445.000000
4.175300 3544.000000
4.194800 3441.000000
4.214300 3449.000000
4.233800 3385.000000
4.253300 3262.000000
4.272800 3270.000000
4.292200 3267.000000
4.311700 3292.000000
4.331200 3270.000000
4.350700 3273.000000
4.370200 3197.000000
4.389600 3253.000000
4.409100 3288.000000
4.428600 3107.000000
4.448100 3146.000000
4.467600 3153.000000
4.487100 3152.000000
4.506500 3000.000000
4.526000 2981.000000
4.545500 3056.000000
4.565000 3080.000000
4.584500 3014.000000
4.604000 3112.000000
4.623400 2980.000000
4.642900 3003.000000
4.662400 2908.000000
4.681900 2982.000000
4.701400 2975.000000
4.720800 2864.000000
4.740300 2942.000000
4.759800 2980.000000
4.779300 2929.000000
4.798800 2850.000000
4.818300 2846.000000
4.837700 2879.000000
4.857200 2844.000000
4.876700 2730.000000
4.896200 2984.000000
4.915700 2892.000000
4.935200 2901.000000
4.954600 2842.000000
4.974100 2776.000000
4.993600 2744.000000
5.013100 2827.000000
5.032600 2868.000000
5.052000 2865.000000
5.071500 2838.000000
5.091000 2777.000000
5.110500 2854.000000
5.130000 2798.000000
5.149500 2858.000000
5.168900 2697.000000
5.188400 2746.000000
5.207900 2775.000000
5.227400 2667.000000
5.246900 2774.000000
5.266400 2758.000000
5.285800 2791.000000
5.305300 2768.000000
5.324800 2805.000000
5.344300 2937.000000
5.363800 2786.000000
5.383200 2779.000000
5.402700 2624.000000
5.422200 2788.000000
5.441700 2783.000000
5.461200 2792.000000
5.480700 2841.000000
5.500100 2793.000000
5.519600 2823.000000
5.539100 2762.000000
5.558600 2844.000000
5.578100 2801.000000
5.597600 2830.000000
5.617000 2899.000000
5.636500 2941.000000
5.656000 2940.000000
5.675500 2920.000000
5.695000 2996.000000
5.714400 3129.000000
5.733900 3046.000000
5.753400 3245.000000
5.772900 3414.000000
5.792400 3497.000000
5.811900 3573.000000
5.831300 3650.000000
5.850800 3816.000000
5.870300 3768.000000
5.889800 3721.000000
5.909300 3514.000000
5.928800 3374.000000
5.948200 3182.000000
5.967700 3117.000000
5.987200 2929.000000
6.006700 2977.000000
6.026200 2949.000000
6.045600 2914.000000
6.065100 2929.000000
6.084600 2943.000000
6.104100 2800.000000
6.123600 2890.000000
6.143100 2815.000000
6.162500 2877.000000
6.182000 2855.000000
6.201500 2938.000000
6.221000 3003.000000
6.240500 2903.000000
6.260000 2714.000000
6.279400 2738.000000
6.298900 2656.000000
6.318400 2651.000000
6.337900 2690.000000
6.357400 2566.000000
6.376800 2624.000000
6.396300 2550.000000
6.415800 2514.000000
6.435300 2613.000000
6.454800 2573.000000
6.474300 2625.000000
6.493700 2597.000000
6.513200 2491.000000
6.532700 2593.000000
6.552200 2548.000000
6.571700 2577.000000
6.591200 2645.000000
6.610600 2617.000000
6.630100 2499.000000
6.649600 2514.000000
6.669100 2525.000000
6.688600 2612.000000
6.708000 2566.000000
6.727500 2573.000000
6.747000 2489.000000
6.766500 2536.000000
6.786000 2523.000000
6.805500 2554.000000
6.824900 2516.000000
6.844400 2519.000000
6.863900 2570.000000
6.883400 2494.000000
6.902900 2503.000000
6.922400 2456.000000
6.941800 2573.000000
6.961300 2533.000000
6.980800 2524.000000
7.000300 2535.000000
7.019800 2481.000000
7.039300 2611.000000
7.058700 2516.000000
7.078200 2524.000000
7.097700 2483.000000
7.117200 2414.000000
7.136700 2523.000000
7.156100 2489.000000
7.175600 2558.000000
7.195100 2568.000000
7.214600 2494.000000
7.234100 2420.000000
7.253600 2489.000000
7.273000 2531.000000
7.292500 2456.000000
7.312000 2429.000000
7.331500 2450.000000
7.351000 2451.000000
7.370500 2470.000000
7.389900 2498.000000
7.409400 2540.000000
7.428900 2457.000000
7.448400 2419.000000
7.467900 2405.000000
7.487300 2519.000000
7.506800 2416.000000
7.526300 2508.000000
7.545800 2415.000000
7.565300 2476.000000
7.584800 2465.000000
7.604200 2413.000000
7.623700 2479.000000
7.643200 2424.000000
7.662700 2475.000000
7.682200 2402.000000
7.701700 2477.000000
7.721100 2500.000000
7.740600 2431.000000
7.760100 2477.000000
7.779600 2434.000000
7.799100 2508.000000
7.818500 2462.000000
7.838000 2469.000000
7.857500 2464.000000
7.877000 2446.000000
7.896500 2389.000000
7.916000 2396.000000
7.935400 2437.000000
7.954900 2449.000000
7.974400 2460.000000
7.993900 2491.000000
8.013400 2503.000000
8.032900 2451.000000
8.052300 2453.000000
8.071800 2408.000000
8.091300 2492.000000
8.110800 2416.000000
8.130300 2494.000000
8.149700 2459.000000
8.169200 2407.000000
8.188700 2442.000000
8.208200 2523.000000
8.227700 2463.000000
8.247200 2468.000000
8.266600 2420.000000
8.286100 2469.000000
8.305600 2459.000000
8.325100 2529.000000
8.344600 2386.000000
8.364100 2402.000000
8.383500 2348.000000
8.403000 2390.000000
8.422500 2403.000000
8.442000 2377.000000
8.461500 2476.000000
8.480900 2498.000000
8.500400 2448.000000
8.519900 2517.000000
8.539400 2451.000000
8.558900 2402.000000
8.578400 2386.000000
8.597800 2454.000000
8.617300 2425.000000
8.636800 2487.000000
8.656300 2483.000000
8.675800 2369.000000
8.695300 2505.000000
8.714700 2433.000000
8.734200 2415.000000
8.753700 2410.000000
8.773200 2435.000000
8.792700 2406.000000
8.812100 2478.000000
8.831600 2423.000000
8.851100 2457.000000
8.870600 2430.000000
8.890100 2423.000000
8.909600 2437.000000
8.929000 2452.000000
8.948500 2421.000000
8.968000 2349.000000
8.987500 2414.000000
9.007000 2503.000000
9.026500 2429.000000
9.045900 2344.000000
9.065400 2470.000000
9.084900 2475.000000
9.104400 2439.000000
9.123900 2375.000000
9.143300 2471.000000
9.162800 2382.000000
9.182300 2411.000000
9.201800 2455.000000
9.221300 2476.000000
9.240800 2521.000000
9.260200 2531.000000
9.279700 2437.000000
9.299200 2536.000000
9.318700 2534.000000
9.338200 2611.000000
9.357700 2671.000000
9.377100 2736.000000
9.396600 2817.000000
9.416100 3073.000000
9.435600 3343.000000
9.455100 3508.000000
9.474500 3179.000000
9.494000 2924.000000
9.513500 2752.000000
9.533000 2602.000000
9.552500 2451.000000
9.572000 2527.000000
9.591400 2450.000000
9.610900 2522.000000
9.630400 2585.000000
9.649900 2418.000000
9.669400 2438.000000
9.688900 2498.000000
9.708300 2481.000000
9.727800 2456.000000
9.747300 2521.000000
9.766800 2451.000000
9.786300 2382.000000
9.805700 2424.000000
9.825200 2447.000000
9.844700 2415.000000
9.864200 2542.000000
9.883700 2508.000000
9.903200 2548.000000
9.922600 2415.000000
9.942100 2446.000000
9.961600 2507.000000
9.981100 2355.000000
10.000600 2443.000000
10.020100 2503.000000
10.039500 2368.000000
10.059000 2379.000000
10.078500 2350.000000
10.098000 2378.000000
10.117500 2440.000000
10.136900 2384.000000
10.156400 2393.000000
10.175900 2417.000000
10.195400 2472.000000
10.214900 2389.000000
10.234400 2345.000000
10.253800 2459.000000
10.273300 2481.000000
10.292800 2326.000000
10.312300 2492.000000
10.331800 2401.000000
10.351300 2497.000000
10.370700 2445.000000
10.390200 2481.000000
10.409700 2488.000000
10.429200 2487.000000
10.448700 2451.000000
10.468100 2450.000000
10.487600 2585.000000
10.507100 2419.000000
10.526600 2477.000000
10.546100 2445.000000
10.565600 2379.000000
10.585000 2434.000000
10.604500 2373.000000
10.624000 2426.000000
10.643500 2419.000000
10.663000 2384.000000
10.682500 2443.000000
10.701900 2391.000000
10.721400 2399.000000
10.740900 2376.000000
10.760400 2510.000000
10.779900 2422.000000
10.799300 2375.000000
10.818800 2319.000000
10.838300 2406.000000
10.857800 2338.000000
10.877300 2367.000000
10.896800 2406.000000
10.916200 2323.000000
10.935700 2442.000000
10.955200 2440.000000
10.974700 2375.000000
10.994200 2342.000000
11.013700 2423.000000
11.033100 2376.000000
11.052600 2391.000000
11.072100 2413.000000
11.091600 2433.000000
11.111100 2415.000000
11.130500 2462.000000
11.150000 2372.000000
11.169500 2478.000000
11.189000 2385.000000
11.208500 2369.000000
11.228000 2440.000000
11.247400 2490.000000
11.266900 2336.000000
11.286400 2373.000000
11.305900 2465.000000
11.325400 2374.000000
11.344900 2416.000000
11.364300 2413.000000
11.383800 2462.000000
11.403300 2470.000000
11.422800 2516.000000
11.442300 2423.000000
11.461700 2470.000000
11.481200 2398.000000
11.500700 2430.000000
11.520200 2452.000000
11.539700 2401.000000
11.559200 2433.000000
11.578600 2435.000000
11.598100 2416.000000
11.617600 2329.000000
11.637100 2360.000000
11.656600 2498.000000
11.676100 2445.000000
11.695500 2435.000000
11.715000 2445.000000
11.734500 2351.000000
11.754000 2354.000000
11.773500 2434.000000
11.792900 2417.000000
11.812400 2468.000000
11.831900 2390.000000
11.851400 2464.000000
11.870900 2397.000000
11.890400 2417.000000
11.909800 2438.000000
11.929300 2394.000000
11.948800 2392.000000
11.968300 2432.000000
11.987800 2365.000000
12.007300 2406.000000
12.026700 2392.000000
12.046200 2448.000000
12.065700 2393.000000
12.085200 2477.000000
12.104700 2385.000000
12.124100 2496.000000
12.143600 2365.000000
12.163100 2480.000000
12.182600 2457.000000
12.202100 2425.000000
12.221600 2471.000000
12.241000 2419.000000
12.260500 2449.000000
12.280000 2498.000000
12.299500 2413.000000
12.319000 2524.000000
12.338500 2482.000000
12.357900 2545.000000
12.377400 2567.000000
12.396900 2677.000000
12.416400 2832.000000
12.435900 2781.000000
12.455300 3108.000000
12.474800 3052.000000
12.494300 2774.000000
12.513800 2676.000000
12.533300 2508.000000
12.552800 2522.000000
12.572200 2457.000000
12.591700 2435.000000
12.611200 2500.000000
12.630700 2380.000000
12.650200 2415.000000
12.669700 2515.000000
12.689100 2444.000000
12.708600 2414.000000
12.728100 2351.000000
12.747600 2482.000000
12.767100 2423.000000
12.786500 2314.000000
12.806000 2469.000000
12.825500 2441.000000
12.845000 2365.000000
12.864500 2303.000000
12.884000 2442.000000
12.903400 2444.000000
12.922900 2428.000000
12.942400 2373.000000
12.961900 2367.000000
12.981400 2334.000000
13.000900 2397.000000
13.020300 2352.000000
13.039800 2431.000000
13.059300 2316.000000
13.078800 2381.000000
13.098300 2479.000000
13.117700 2421.000000
13.137200 2388.000000
13.156700 2417.000000
13.176200 2407.000000
13.195700 2385.000000
13.215200 2430.000000
13.234600 2385.000000
13.254100 2397.000000
13.273600 2341.000000
13.293100 2427.000000
13.312600 2455.000000
13.332100 2439.000000
13.351500 2479.000000
13.371000 2372.000000
13.390500 2416.000000
13.410000 2385.000000
13.429500 2441.000000
13.448900 2435.000000
13.468400 2397.000000
13.487900 2401.000000
13.507400 2394.000000
13.526900 2435.000000
13.546400 2419.000000
13.565800 2433.000000
13.585300 2434.000000
13.604800 2310.000000
13.624300 2390.000000
13.643800 2435.000000
13.663300 2364.000000
13.682700 2348.000000
13.702200 2356.000000
13.721700 2348.000000
13.741200 2433.000000
13.760700 2410.000000
13.780100 2443.000000
13.799600 2359.000000
13.819100 2484.000000
13.838600 2412.000000
13.858100 2404.000000
13.877600 2443.000000
13.897000 2372.000000
13.916500 2402.000000
13.936000 2354.000000
13.955500 2532.000000
13.975000 2433.000000
13.994500 2375.000000
14.013900 2430.000000
14.033400 2445.000000
14.052900 2375.000000
14.072400 2408.000000
14.091900 2325.000000
14.111300 2368.000000
14.130800 2421.000000
14.150300 2414.000000
14.169800 2430.000000
14.189300 2254.000000
14.208800 2448.000000
14.228200 2392.000000
14.247700 2466.000000
14.267200 2311.000000
14.286700 2445.000000
14.306200 2389.000000
14.325700 2383.000000
14.345100 2414.000000
14.364600 2388.000000
14.384100 2412.000000
14.403600 2401.000000
14.423100 2293.000000
14.442600 2349.000000
14.462000 2361.000000
14.481500 2457.000000
14.501000 2387.000000
14.520500 2406.000000
14.540000 2412.000000
14.559400 2453.000000
14.578900 2365.000000
14.598400 2368.000000
14.617900 2423.000000
14.637400 2391.000000
14.656900 2494.000000
14.676300 2438.000000
14.695800 2397.000000
14.715300 2321.000000
14.734800 2354.000000
14.754300 2308.000000
14.773700 2345.000000
14.793200 2400.000000
14.812700 2469.000000
14.832200 2478.000000
14.851700 2383.000000
14.871200 2344.000000
14.890600 2394.000000
14.910100 2404.000000
14.929600 2382.000000
14.949100 2356.000000
14.968600 2399.000000
14.988100 2427.000000
15.007500 2443.000000
15.027000 2308.000000
15.046500 2387.000000
15.066000 2380.000000
15.085500 2414.000000
15.104900 2353.000000
15.124400 2296.000000
15.143900 2322.000000
15.163400 2449.000000
15.182900 2425.000000
15.202400 2280.000000
15.221800 2481.000000
15.241300 2415.000000
15.260800 2403.000000
15.280300 2359.000000
15.299800 2351.000000
15.319300 2482.000000
15.338700 2440.000000
15.358200 2396.000000
15.377700 2504.000000
15.397200 2397.000000
15.416700 2398.000000
15.436200 2385.000000
15.455600 2297.000000
15.475100 2316.000000
15.494600 2326.000000
15.514100 2357.000000
15.533600 2453.000000
15.553000 2317.000000
15.572500 2397.000000
15.592000 2426.000000
15.611500 2356.000000
15.631000 2349.000000
15.650500 2396.000000
15.669900 2331.000000
15.689400 2402.000000
15.708900 2349.000000
15.728400 2318.000000
15.747900 2371.000000
15.767400 2331.000000
15.786800 2429.000000
15.806300 2338.000000
15.825800 2423.000000
15.845300 2345.000000
15.864800 2331.000000
15.884200 2455.000000
15.903700 2331.000000
15.923200 2362.000000
15.942700 2301.000000
15.962200 2402.000000
15.981700 2389.000000
16.001100 2411.000000
16.020600 2327.000000
16.040100 2368.000000
16.059600 2456.000000
16.079100 2337.000000
16.098600 2409.000000
16.118000 2396.000000
16.137500 2383.000000
16.157000 2335.000000
16.176500 2390.000000
16.196000 2317.000000
16.215400 2310.000000
16.234900 2426.000000
16.254400 2400.000000
16.273900 2357.000000
16.293400 2366.000000
16.312900 2338.000000
16.332300 2393.000000
16.351800 2417.000000
16.371300 2410.000000
16.390800 2392.000000
16.410300 2463.000000
16.429800 2365.000000
16.449200 2387.000000
16.468700 2371.000000
16.488200 2337.000000
16.507700 2415.000000
16.527200 2335.000000
16.546600 2359.000000
16.566100 2399.000000
16.585600 2358.000000
16.605100 2360.000000
16.624600 2433.000000
16.644100 2333.000000
16.663500 2320.000000
16.683000 2422.000000
16.702500 2343.000000
16.722000 2413.000000
16.741500 2362.000000
16.761000 2381.000000
16.780400 2311.000000
16.799900 2410.000000
16.819400 2409.000000
16.838900 2396.000000
16.858400 2352.000000
16.877800 2315.000000
16.897300 2412.000000
16.916800 2267.000000
16.936300 2474.000000
16.955800 2379.000000
16.975300 2359.000000
16.994700 2390.000000
17.014200 2407.000000
17.033700 2356.000000
17.053200 2384.000000
17.072700 2351.000000
17.092200 2309.000000
17.111600 2419.000000
17.131100 2268.000000
17.150600 2397.000000
17.170100 2349.000000
17.189600 2401.000000
17.209000 2313.000000
17.228500 2428.000000
17.248000 2341.000000
17.267500 2357.000000
17.287000 2392.000000
17.306500 2364.000000
17.325900 2349.000000
17.345400 2327.000000
17.364900 2370.000000
17.384400 2315.000000
17.403900 2363.000000
17.423400 2351.000000
17.442800 2396.000000
17.462300 2378.000000
17.481800 2398.000000
17.501300 2349.000000
17.520800 2347.000000
17.540200 2399.000000
17.559700 2418.000000
17.579200 2348.000000
17.598700 2441.000000
17.618200 2357.000000
17.637700 2416.000000
17.657100 2410.000000
17.676600 2419.000000
17.696100 2464.000000
17.715600 2349.000000
17.735100 2349.000000
17.754600 2423.000000
17.774000 2461.000000
17.793500 2390.000000
17.813000 2438.000000
17.832500 2212.000000
17.852000 2370.000000
17.871400 2400.000000
17.890900 2333.000000
17.910400 2335.000000
17.929900 2428.000000
17.949400 2439.000000
17.968900 2455.000000
17.988300 2394.000000
18.007800 2427.000000
18.027300 2483.000000
18.046800 2299.000000
18.066300 2335.000000
18.085800 2376.000000
18.105200 2439.000000
18.124700 2415.000000
18.144200 2354.000000
18.163700 2396.000000
18.183200 2378.000000
18.202600 2492.000000
18.222100 2588.000000
18.241600 2691.000000
18.261100 2793.000000
18.280600 2990.000000
18.300100 3034.000000
18.319500 2894.000000
18.339000 2718.000000
18.358500 2626.000000
18.378000 2413.000000
18.397500 2481.000000
18.417000 2429.000000
18.436400 2473.000000
18.455900 2365.000000
18.475400 2497.000000
18.494900 2415.000000
18.514400 2347.000000
18.533800 2412.000000
18.553300 2515.000000
18.572800 2363.000000
18.592300 2481.000000
18.611800 2463.000000
18.631300 2392.000000
18.650700 2432.000000
18.670200 2537.000000
18.689700 2460.000000
18.709200 2509.000000
18.728700 2609.000000
18.748200 2651.000000
18.767600 2580.000000
18.787100 2536.000000
18.806600 2582.000000
18.826100 2378.000000
18.845600 2417.000000
18.865000 2451.000000
18.884500 2449.000000
18.904000 2547.000000
18.923500 2469.000000
18.943000 2510.000000
18.962500 2479.000000
18.981900 2534.000000
19.001400 2400.000000
19.020900 2370.000000
19.040400 2329.000000
19.059900 2383.000000
19.079400 2370.000000
19.098800 2438.000000
19.118300 2393.000000
19.137800 2352.000000
19.157300 2388.000000
19.176800 2395.000000
19.196200 2376.000000
19.215700 2412.000000
19.235200 2350.000000
19.254700 2329.000000
19.274200 2510.000000
19.293700 2451.000000
19.313100 2399.000000
19.332600 2425.000000
19.352100 2500.000000
19.371600 2565.000000
19.391100 2519.000000
19.410600 2410.000000
19.430000 2459.000000
19.449500 2441.000000
19.469000 2386.000000
19.488500 2417.000000
19.508000 2503.000000
19.527400 2523.000000
19.546900 2420.000000
19.566400 2480.000000
19.585900 2349.000000
19.605400 2456.000000
19.624900 2451.000000
19.644300 2517.000000
19.663800 2452.000000
19.683300 2450.000000
19.702800 2461.000000
19.722300 2430.000000
19.741800 2417.000000
19.761200 2342.000000
19.780700 2434.000000
19.800200 2362.000000
19.819700 2420.000000
19.839200 2433.000000
19.858600 2458.000000
19.878100 2447.000000
19.897600 2465.000000
19.917100 2427.000000
19.936600 2391.000000
19.956100 2486.000000
19.975500 2427.000000
19.995000 2375.000000
20.014500 2354.000000
20.034000 2344.000000
20.053500 2438.000000
20.073000 2416.000000
20.092400 2427.000000
20.111900 2462.000000
20.131400 2418.000000
20.150900 2264.000000
20.170400 2509.000000
20.189800 2371.000000
20.209300 2480.000000
20.228800 2393.000000
20.248300 2428.000000
20.267800 2452.000000
20.287300 2393.000000
20.306700 2396.000000
20.326200 2341.000000
20.345700 2446.000000
20.365200 2345.000000
20.384700 2375.000000
20.404200 2397.000000
20.423600 2471.000000
20.443100 2319.000000
20.462600 2447.000000
20.482100 2384.000000
20.501600 2367.000000
20.521000 2428.000000
20.540500 2447.000000
20.560000 2365.000000
20.579500 2382.000000
20.599000 2486.000000
20.618500 2420.000000
20.637900 2368.000000
20.657400 2391.000000
20.676900 2476.000000
20.696400 2355.000000
20.715900 2407.000000
20.735400 2440.000000
20.754800 2443.000000
20.774300 2470.000000
20.793800 2524.000000
20.813300 2418.000000
20.832800 2594.000000
20.852200 2473.000000
20.871700 2502.000000
20.891200 2508.000000
20.910700 2494.000000
20.930200 2466.000000
20.949700 2444.000000
20.969100 2359.000000
20.988600 2402.000000
21.008100 2399.000000
21.027600 2377.000000
21.047100 2427.000000
21.066600 2465.000000
21.086000 2571.000000
21.105500 2346.000000
21.125000 2407.000000
21.144500 2440.000000
21.164000 2435.000000
21.183400 2360.000000
21.202900 2401.000000
21.222400 2496.000000
21.241900 2390.000000
21.261400 2472.000000
21.280900 2385.000000
21.300300 2384.000000
21.319800 2517.000000
21.339300 2331.000000
21.358800 2354.000000
21.378300 2436.000000
21.397800 2424.000000
21.417200 2433.000000
21.436700 2444.000000
21.456200 2476.000000
21.475700 2453.000000
21.495200 2380.000000
21.514600 2422.000000
21.534100 2495.000000
21.553600 2460.000000
21.573100 2369.000000
21.592600 2435.000000
21.612100 2420.000000
21.631500 2398.000000
21.651000 2459.000000
21.670500 2462.000000
21.690000 2386.000000
21.709500 2327.000000
21.729000 2479.000000
21.748400 2388.000000
21.767900 2408.000000
21.787400 2357.000000
21.806900 2369.000000
21.826400 2455.000000
21.845800 2354.000000
21.865300 2326.000000
21.884800 2437.000000
21.904300 2493.000000
21.923800 2318.000000
21.943300 2410.000000
21.962700 2365.000000
21.982200 2399.000000
22.001700 2410.000000
22.021200 2330.000000
22.040700 2424.000000
22.060200 2314.000000
22.079600 2439.000000
22.099100 2429.000000
22.118600 2295.000000
22.138100 2370.000000
22.157600 2440.000000
22.177000 2444.000000
22.196500 2396.000000
22.216000 2471.000000
22.235500 2363.000000
22.255000 2330.000000
22.274500 2374.000000
22.293900 2399.000000
22.313400 2342.000000
22.332900 2486.000000
22.352400 2435.000000
22.371900 2485.000000
22.391400 2474.000000
22.410800 2404.000000
22.430300 2395.000000
22.449800 2381.000000
22.469300 2416.000000
22.488800 2417.000000
22.508300 2456.000000
22.527700 2450.000000
22.547200 2281.000000
22.566700 2357.000000
22.586200 2429.000000
22.605700 2380.000000
22.625100 2409.000000
22.644600 2340.000000
22.664100 2440.000000
22.683600 2393.000000
22.703100 2440.000000
22.722600 2433.000000
22.742000 2470.000000
22.761500 2427.000000
22.781000 2383.000000
22.800500 2456.000000
22.820000 2520.000000
22.839500 2451.000000
22.858900 2457.000000
22.878400 2356.000000
22.897900 2377.000000
22.917400 2349.000000
22.936900 2425.000000
22.956300 2529.000000
22.975800 2460.000000
22.995300 2480.000000
23.014800 2437.000000
23.034300 2490.000000
23.053800 2639.000000
23.073200 2549.000000
23.092700 2569.000000
23.112200 2649.000000
23.131700 2610.000000
23.151200 2504.000000
23.170700 2535.000000
23.190100 2437.000000
23.209600 2379.000000
23.229100 2428.000000
23.248600 2491.000000
23.268100 2417.000000
23.287500 2469.000000
23.307000 2506.000000
23.326500 2508.000000
23.346000 2346.000000
23.365500 2452.000000
23.385000 2387.000000
23.404400 2431.000000
23.423900 2520.000000
23.443400 2433.000000
23.462900 2471.000000
23.482400 2482.000000
23.501900 2348.000000
23.521300 2352.000000
23.540800 2436.000000
23.560300 2346.000000
23.579800 2408.000000
23.599300 2426.000000
23.618700 2415.000000
23.638200 2508.000000
23.657700 2413.000000
23.677200 2421.000000
23.696700 2451.000000
23.716200 2394.000000
23.735600 2521.000000
23.755100 2337.000000
23.774600 2498.000000
23.794100 2357.000000
23.813600 2456.000000
23.833100 2455.000000
23.852500 2357.000000
23.872000 2468.000000
23.891500 2429.000000
23.911000 2460.000000
23.930500 2446.000000
23.949900 2369.000000
23.969400 2382.000000
23.988900 2447.000000
24.008400 2347.000000
24.027900 2466.000000
24.047400 2394.000000
24.066800 2466.000000
24.086300 2461.000000
24.105800 2418.000000
24.125300 2475.000000
24.144800 2544.000000
24.164300 2481.000000
24.183700 2432.000000
24.203200 2433.000000
24.222700 2347.000000
24.242200 2464.000000
24.261700 2363.000000
24.281100 2447.000000
24.300600 2379.000000
24.320100 2370.000000
24.339600 2351.000000
24.359100 2410.000000
24.378600 2484.000000
24.398000 2405.000000
24.417500 2409.000000
24.437000 2493.000000
24.456500 2505.000000
24.476000 2355.000000
24.495500 2518.000000
24.514900 2411.000000
24.534400 2450.000000
24.553900 2444.000000
24.573400 2463.000000
24.592900 2486.000000
24.612300 2522.000000
24.631800 2357.000000
24.651300 2518.000000
24.670800 2368.000000
24.690300 2431.000000
24.709800 2484.000000
24.729200 2472.000000
24.748700 2531.000000
24.768200 2452.000000
24.787700 2486.000000
24.807200 2498.000000
24.826700 2416.000000
24.846100 2542.000000
24.865600 2436.000000
24.885100 2558.000000
24.904600 2422.000000
24.924100 2424.000000
24.943500 2487.000000
24.963000 2536.000000
24.982500 2505.000000
25.002000 2559.000000
25.021500 2636.000000
25.041000 2683.000000
25.060400 2630.000000
25.079900 2608.000000
25.099400 2651.000000
25.118900 2625.000000
25.138400 2556.000000
25.157900 2525.000000
25.177300 2569.000000
25.196800 2399.000000
25.216300 2475.000000
25.235800 2541.000000
25.255300 2420.000000
25.274700 2444.000000
25.294200 2429.000000
25.313700 2399.000000
25.333200 2391.000000
25.352700 2377.000000
25.372200 2437.000000
25.391600 2452.000000
25.411100 2493.000000
25.430600 2374.000000
25.450100 2420.000000
25.469600 2431.000000
25.489100 2401.000000
25.508500 2385.000000
25.528000 2365.000000
25.547500 2401.000000
25.567000 2447.000000
25.586500 2396.000000
25.605900 2368.000000
25.625400 2388.000000
25.644900 2295.000000
25.664400 2431.000000
25.683900 2447.000000
25.703400 2454.000000
25.722800 2464.000000
25.742300 2465.000000
25.761800 2459.000000
25.781300 2442.000000
25.800800 2435.000000
25.820300 2420.000000
25.839700 2460.000000
25.859200 2450.000000
25.878700 2431.000000
25.898200 2433.000000
25.917700 2510.000000
25.937100 2443.000000
25.956600 2385.000000
25.976100 2417.000000
25.995600 2450.000000
26.015100 2439.000000
26.034600 2426.000000
26.054000 2486.000000
26.073500 2506.000000
26.093000 2411.000000
26.112500 2490.000000
26.132000 2377.000000
26.151500 2475.000000
26.170900 2419.000000
26.190400 2421.000000
26.209900 2350.000000
26.229400 2370.000000
26.248900 2416.000000
26.268300 2546.000000
26.287800 2472.000000
26.307300 2423.000000
26.326800 2455.000000
26.346300 2533.000000
26.365800 2468.000000
26.385200 2436.000000
26.404700 2502.000000
26.424200 2400.000000
26.443700 2510.000000
26.463200 2485.000000
26.482700 2506.000000
26.502100 2366.000000
26.521600 2473.000000
26.541100 2499.000000
26.560600 2494.000000
26.580100 2487.000000
26.599500 2532.000000
26.619000 2746.000000
26.638500 2789.000000
26.658000 2793.000000
26.677500 2739.000000
26.697000 2671.000000
26.716400 2659.000000
26.735900 2606.000000
26.755400 2474.000000
26.774900 2456.000000
26.794400 2485.000000
26.813900 2491.000000
26.833300 2438.000000
26.852800 2450.000000
26.872300 2382.000000
26.891800 2456.000000
26.911300 2499.000000
26.930700 2454.000000
26.950200 2465.000000
26.969700 2409.000000
26.989200 2420.000000
27.008700 2459.000000
27.028200 2415.000000
27.047600 2430.000000
27.067100 2409.000000
27.086600 2526.000000
27.106100 2459.000000
27.125600 2417.000000
27.145100 2468.000000
27.164500 2509.000000
27.184000 2524.000000
27.203500 2450.000000
27.223000 2380.000000
27.242500 2499.000000
27.261900 2422.000000
27.281400 2480.000000
27.300900 2455.000000
27.320400 2398.000000
27.339900 2460.000000
27.359400 2338.000000
27.378800 2399.000000
27.398300 2440.000000
27.417800 2455.000000
27.437300 2412.000000
27.456800 2329.000000
27.476300 2578.000000
27.495700 2334.000000
27.515200 2461.000000
27.534700 2382.000000
27.554200 2497.000000
27.573700 2471.000000
27.593100 2472.000000
27.612600 2443.000000
27.632100 2443.000000
27.651600 2451.000000
27.671100 2426.000000
27.690600 2445.000000
27.710000 2446.000000
27.729500 2409.000000
27.749000 2472.000000
27.768500 2384.000000
27.788000 2344.000000
27.807500 2488.000000
27.826900 2467.000000
27.846400 2504.000000
27.865900 2379.000000
27.885400 2399.000000
27.904900 2449.000000
27.924300 2464.000000
27.943800 2514.000000
27.963300 2518.000000
27.982800 2547.000000
28.002300 2459.000000
28.021800 2425.000000
28.041200 2466.000000
28.060700 2444.000000
28.080200 2403.000000
28.099700 2480.000000
28.119200 2519.000000
28.138700 2471.000000
28.158100 2441.000000
28.177600 2454.000000
28.197100 2425.000000
28.216600 2434.000000
28.236100 2527.000000
28.255500 2609.000000
28.275000 2386.000000
28.294500 2451.000000
28.314000 2499.000000
28.333500 2512.000000
28.353000 2564.000000
28.372400 2462.000000
28.391900 2595.000000
28.411400 2483.000000
28.430900 2546.000000
28.450400 2544.000000
28.469900 2463.000000
28.489300 2572.000000
28.508800 2561.000000
28.528300 2608.000000
28.547800 2684.000000
28.567300 2748.000000
28.586800 3033.000000
28.606200 3056.000000
28.625700 2883.000000
28.645200 2736.000000
28.664700 2783.000000
28.684200 2585.000000
28.703600 2652.000000
28.723100 2511.000000
28.742600 2456.000000
28.762100 2508.000000
28.781600 2451.000000
28.801100 2453.000000
28.820500 2491.000000
28.840000 2555.000000
28.859500 2514.000000
28.879000 2430.000000
28.898500 2553.000000
28.918000 2479.000000
28.937400 2448.000000
28.956900 2533.000000
28.976400 2497.000000
28.995900 2479.000000
29.015400 2408.000000
29.034800 2517.000000
29.054300 2492.000000
29.073800 2515.000000
29.093300 2504.000000
29.112800 2482.000000
29.132300 2481.000000
29.151700 2532.000000
29.171200 2510.000000
29.190700 2495.000000
29.210200 2577.000000
29.229700 2605.000000
29.249200 2654.000000
29.268600 2557.000000
29.288100 2759.000000
29.307600 2841.000000
29.327100 3000.000000
29.346600 3392.000000
29.366000 4380.000000
29.385500 5546.000000
29.405000 5638.000000
29.424500 5136.000000
29.444000 4823.000000
29.463500 4799.000000
29.482900 4469.000000
29.502400 3910.000000
29.521900 3370.000000
29.541400 3003.000000
29.560900 2899.000000
29.580300 2790.000000
29.599800 2693.000000
29.619300 2650.000000
29.638800 2726.000000
29.658300 2608.000000
29.677800 2618.000000
29.697200 2622.000000
29.716700 2584.000000
29.736200 2491.000000
29.755700 2619.000000
29.775200 2582.000000
29.794700 2437.000000
29.814100 2511.000000
29.833600 2579.000000
29.853100 2566.000000
29.872600 2538.000000
29.892100 2604.000000
29.911600 2502.000000
29.931000 2606.000000
29.950500 2590.000000
29.970000 2486.000000
29.989500 2588.000000
30.009000 2796.000000
30.028400 2988.000000
30.047900 3549.000000
30.067400 3964.000000
30.086900 4115.000000
30.106400 3507.000000
30.125900 3331.000000
30.145300 3371.000000
30.164800 3274.000000
30.184300 2930.000000
30.203800 2743.000000
30.223300 2613.000000
30.242800 2494.000000
30.262200 2547.000000
30.281700 2521.000000
30.301200 2592.000000
30.320700 2555.000000
30.340200 2495.000000
30.359600 2591.000000
30.379100 2599.000000
30.398600 2476.000000
30.418100 2437.000000
30.437600 2535.000000
30.457100 2521.000000
30.476500 2422.000000
30.496000 2471.000000
30.515500 2512.000000
30.535000 2437.000000
30.554500 2447.000000
30.574000 2417.000000
30.593400 2454.000000
30.612900 2476.000000
30.632400 2441.000000
30.651900 2525.000000
30.671400 2435.000000
30.690800 2535.000000
30.710300 2476.000000
30.729800 2416.000000
30.749300 2467.000000
30.768800 2461.000000
30.788300 2484.000000
30.807700 2535.000000
30.827200 2470.000000
30.846700 2515.000000
30.866200 2464.000000
30.885700 2482.000000
30.905200 2510.000000
30.924600 2432.000000
30.944100 2549.000000
30.963600 2516.000000
30.983100 2513.000000
31.002600 2437.000000
31.022000 2434.000000
31.041500 2516.000000
31.061000 2496.000000
31.080500 2534.000000
31.100000 2480.000000
31.119500 2447.000000
31.138900 2525.000000
31.158400 2441.000000
31.177900 2441.000000
31.197400 2635.000000
31.216900 2510.000000
31.236400 2494.000000
31.255800 2420.000000
31.275300 2480.000000
31.294800 2511.000000
31.314300 2433.000000
31.333800 2551.000000
31.353200 2446.000000
31.372700 2470.000000
31.392200 2502.000000
31.411700 2616.000000
31.431200 2648.000000
31.450700 2641.000000
31.470100 2596.000000
31.489600 2766.000000
31.509100 2690.000000
31.528600 2699.000000
31.548100 2554.000000
31.567600 2601.000000
31.587000 2616.000000
31.606500 2549.000000
31.626000 2521.000000
31.645500 2595.000000
31.665000 2489.000000
31.684400 2544.000000
31.703900 2372.000000
31.723400 2519.000000
31.742900 2523.000000
31.762400 2525.000000
31.781900 2556.000000
31.801300 2512.000000
31.820800 2458.000000
31.840300 2487.000000
31.859800 2585.000000
31.879300 2611.000000
31.898800 2722.000000
31.918200 2530.000000
31.937700 2549.000000
31.957200 2548.000000
31.976700 2607.000000
31.996200 2537.000000
32.015600 2425.000000
32.035100 2511.000000
32.054600 2462.000000
32.074100 2529.000000
32.093600 2426.000000
32.113100 2404.000000
32.132500 2488.000000
32.152000 2481.000000
32.171500 2427.000000
32.191000 2436.000000
32.210500 2580.000000
32.230000 2506.000000
32.249400 2451.000000
32.268900 2431.000000
32.288400 2445.000000
32.307900 2480.000000
32.327400 2452.000000
32.346800 2447.000000
32.366300 2478.000000
32.385800 2471.000000
32.405300 2483.000000
32.424800 2517.000000
32.444300 2544.000000
32.463700 2385.000000
32.483200 2411.000000
32.502700 2429.000000
32.522200 2578.000000
32.541700 2471.000000
32.561200 2585.000000
32.580600 2455.000000
32.600100 2483.000000
32.619600 2442.000000
32.639100 2519.000000
32.658600 2501.000000
32.678000 2504.000000
32.697500 2500.000000
32.717000 2494.000000
32.736500 2417.000000
32.756000 2463.000000
32.775500 2551.000000
32.794900 2485.000000
32.814400 2555.000000
32.833900 2452.000000
32.853400 2487.000000
32.872900 2478.000000
32.892400 2628.000000
32.911800 2523.000000
32.931300 2480.000000
32.950800 2442.000000
32.970300 2622.000000
32.989800 2520.000000
33.009200 2516.000000
33.028700 2401.000000
33.048200 2613.000000
33.067700 2563.000000
33.087200 2584.000000
33.106700 2634.000000
33.126100 2607.000000
33.145600 2686.000000
33.165100 2656.000000
33.184600 2743.000000
33.204100 2916.000000
33.223600 3492.000000
33.243000 3417.000000
33.262500 2936.000000
33.282000 2812.000000
33.301500 2814.000000
33.321000 3016.000000
33.340400 2792.000000
33.359900 2547.000000
33.379400 2478.000000
33.398900 2470.000000
33.418400 2455.000000
33.437900 2489.000000
33.457300 2564.000000
33.476800 2424.000000
33.496300 2461.000000
33.515800 2524.000000
33.535300 2482.000000
33.554800 2490.000000
33.574200 2548.000000
33.593700 2558.000000
33.613200 2540.000000
33.632700 2582.000000
33.652200 2549.000000
33.671600 2516.000000
33.691100 2438.000000
33.710600 2485.000000
33.730100 2587.000000
33.749600 2576.000000
33.769100 2467.000000
33.788500 2501.000000
33.808000 2466.000000
33.827500 2524.000000
33.847000 2503.000000
33.866500 2540.000000
33.886000 2576.000000
33.905400 2618.000000
33.924900 2611.000000
33.944400 2542.000000
33.963900 2507.000000
33.983400 2524.000000
34.002800 2452.000000
34.022300 2473.000000
34.041800 2620.000000
34.061300 2523.000000
34.080800 2478.000000
34.100300 2455.000000
34.119700 2480.000000
34.139200 2517.000000
34.158700 2538.000000
34.178200 2576.000000
34.197700 2565.000000
34.217200 2515.000000
34.236600 2620.000000
34.256100 2493.000000
34.275600 2580.000000
34.295100 2556.000000
34.314600 2506.000000
34.334000 2490.000000
34.353500 2609.000000
34.373000 2543.000000
34.392500 2545.000000
34.412000 2575.000000
34.431500 2591.000000
34.450900 2530.000000
34.470400 2580.000000
34.489900 2669.000000
34.509400 2608.000000
34.528900 2565.000000
34.548400 2565.000000
34.567800 2494.000000
34.587300 2602.000000
34.606800 2604.000000
34.626300 2599.000000
34.645800 2581.000000
34.665200 2570.000000
34.684700 2574.000000
34.704200 2542.000000
34.723700 2530.000000
34.743200 2560.000000
34.762700 2540.000000
34.782100 2512.000000
34.801600 2556.000000
34.821100 2641.000000
34.840600 2572.000000
34.860100 2528.000000
34.879600 2660.000000
34.899000 2570.000000
34.918500 2658.000000
34.938000 2631.000000
34.957500 2643.000000
34.977000 2690.000000
34.996500 2554.000000
35.015900 2567.000000
35.035400 2555.000000
35.054900 2658.000000
35.074400 2701.000000
35.093900 2695.000000
35.113300 2680.000000
35.132800 2678.000000
35.152300 2692.000000
35.171800 2665.000000
35.191300 2673.000000
35.210800 2639.000000
35.230200 2718.000000
35.249700 2841.000000
35.269200 2821.000000
35.288700 2879.000000
35.308200 2967.000000
35.327600 3327.000000
35.347100 3409.000000
35.366600 4168.000000
35.386100 5833.000000
35.405600 7758.000000
35.425100 9106.000000
35.444500 8692.000000
35.464000 6714.000000
35.483500 5742.000000
35.503000 6006.000000
35.522500 6050.000000
35.542000 5436.000000
35.561400 4097.000000
35.580900 3418.000000
35.600400 3156.000000
35.619900 2914.000000
35.639400 2929.000000
35.658800 2784.000000
35.678300 2723.000000
35.697800 2723.000000
35.717300 2732.000000
35.736800 2820.000000
35.756300 2611.000000
35.775700 2705.000000
35.795200 2647.000000
35.814700 2675.000000
35.834200 2633.000000
35.853700 2549.000000
35.873200 2651.000000
35.892600 2648.000000
35.912100 2632.000000
35.931600 2685.000000
35.951100 2663.000000
35.970600 2617.000000
35.990100 2668.000000
36.009500 2658.000000
36.029000 2679.000000
36.048500 2669.000000
36.068000 2672.000000
36.087500 2642.000000
36.106900 2681.000000
36.126400 2669.000000
36.145900 2570.000000
36.165400 2567.000000
36.184900 2536.000000
36.204400 2648.000000
36.223800 2636.000000
36.243300 2557.000000
36.262800 2477.000000
36.282300 2593.000000
36.301800 2653.000000
36.321300 2667.000000
36.340700 2637.000000
36.360200 2530.000000
36.379700 2531.000000
36.399200 2562.000000
36.418700 2572.000000
36.438100 2607.000000
36.457600 2697.000000
36.477100 2813.000000
36.496600 2763.000000
36.516100 2915.000000
36.535600 2942.000000
36.555000 2865.000000
36.574500 2820.000000
36.594000 2766.000000
36.613500 2847.000000
36.633000 2631.000000
36.652500 2673.000000
36.671900 2624.000000
36.691400 2495.000000
36.710900 2662.000000
36.730400 2660.000000
36.749900 2614.000000
36.769300 2658.000000
36.788800 2587.000000
36.808300 2483.000000
36.827800 2619.000000
36.847300 2541.000000
36.866800 2593.000000
36.886200 2613.000000
36.905700 2567.000000
36.925200 2595.000000
36.944700 2543.000000
36.964200 2597.000000
36.983700 2591.000000
37.003100 2604.000000
37.022600 2797.000000
37.042100 2978.000000
37.061600 3031.000000
37.081100 2900.000000
37.100500 2762.000000
37.120000 2786.000000
37.139500 2657.000000
37.159000 2866.000000
37.178500 2686.000000
37.198000 2667.000000
37.217400 2637.000000
37.236900 2570.000000
37.256400 2521.000000
37.275900 2509.000000
37.295400 2504.000000
37.314900 2552.000000
37.334300 2421.000000
37.353800 2566.000000
37.373300 2559.000000
37.392800 2585.000000
37.412300 2597.000000
37.431700 2543.000000
37.451200 2500.000000
37.470700 2544.000000
37.490200 2586.000000
37.509700 2574.000000
37.529200 2534.000000
37.548600 2634.000000
37.568100 2620.000000
37.587600 2606.000000
37.607100 2580.000000
37.626600 2536.000000
37.646100 2568.000000
37.665500 2492.000000
37.685000 2491.000000
37.704500 2610.000000
37.724000 2567.000000
37.743500 2550.000000
37.762900 2579.000000
37.782400 2498.000000
37.801900 2608.000000
37.821400 2633.000000
37.840900 2606.000000
37.860400 2462.000000
37.879800 2520.000000
37.899300 2449.000000
37.918800 2525.000000
37.938300 2510.000000
37.957800 2630.000000
37.977300 2499.000000
37.996700 2547.000000
38.016200 2556.000000
38.035700 2653.000000
38.055200 2566.000000
38.074700 2597.000000
38.094100 2724.000000
38.113600 2517.000000
38.133100 2678.000000
38.152600 2495.000000
38.172100 2590.000000
38.191600 2522.000000
38.211000 2554.000000
38.230500 2638.000000
38.250000 2595.000000
38.269500 2523.000000
38.289000 2593.000000
38.308500 2613.000000
38.327900 2579.000000
38.347400 2529.000000
38.366900 2533.000000
38.386400 2560.000000
38.405900 2590.000000
38.425300 2604.000000
38.444800 2562.000000
38.464300 2525.000000
38.483800 2572.000000
38.503300 2551.000000
38.522800 2548.000000
38.542200 2595.000000
38.561700 2515.000000
38.581200 2535.000000
38.600700 2618.000000
38.620200 2540.000000
38.639700 2591.000000
38.659100 2570.000000
38.678600 2527.000000
38.698100 2533.000000
38.717600 2524.000000
38.737100 2603.000000
38.756500 2538.000000
38.776000 2595.000000
38.795500 2524.000000
38.815000 2584.000000
38.834500 2595.000000
38.854000 2504.000000
38.873400 2574.000000
38.892900 2536.000000
38.912400 2576.000000
38.931900 2555.000000
38.951400 2623.000000
38.970900 2538.000000
38.990300 2514.000000
39.009800 2538.000000
39.029300 2451.000000
39.048800 2604.000000
39.068300 2550.000000
39.087700 2547.000000
39.107200 2569.000000
39.126700 2584.000000
39.146200 2541.000000
39.165700 2543.000000
39.185200 2513.000000
39.204600 2512.000000
39.224100 2569.000000
39.243600 2591.000000
39.263100 2708.000000
39.282600 2562.000000
39.302100 2686.000000
39.321500 2616.000000
39.341000 2641.000000
39.360500 2622.000000
39.380000 2829.000000
39.399500 2827.000000
39.418900 2828.000000
39.438400 2887.000000
39.457900 3028.000000
39.477400 2816.000000
39.496900 2895.000000
39.516400 2897.000000
39.535800 2902.000000
39.555300 2741.000000
39.574800 2782.000000
39.594300 2761.000000
39.613800 2692.000000
39.633300 2619.000000
39.652700 2611.000000
39.672200 2587.000000
39.691700 2548.000000
39.711200 2689.000000
39.730700 2608.000000
39.750100 2623.000000
39.769600 2677.000000
39.789100 2643.000000
39.808600 2571.000000
39.828100 2591.000000
39.847600 2558.000000
39.867000 2612.000000
39.886500 2618.000000
39.906000 2520.000000
39.925500 2494.000000
39.945000 2646.000000
39.964500 2495.000000
39.983900 2654.000000
40.003400 2648.000000
40.022900 2562.000000
40.042400 2658.000000
40.061900 2590.000000
40.081300 2597.000000
40.100800 2582.000000
40.120300 2519.000000
40.139800 2585.000000
40.159300 2608.000000
40.178800 2502.000000
40.198200 2659.000000
40.217700 2618.000000
40.237200 2532.000000
40.256700 2611.000000
40.276200 2622.000000
40.295700 2620.000000
40.315100 2590.000000
40.334600 2648.000000
40.354100 2624.000000
40.373600 2616.000000
40.393100 2512.000000
40.412500 2703.000000
40.432000 2601.000000
40.451500 2550.000000
40.471000 2579.000000
40.490500 2578.000000
40.510000 2604.000000
40.529400 2497.000000
40.548900 2597.000000
40.568400 2530.000000
40.587900 2651.000000
40.607400 2584.000000
40.626900 2572.000000
40.646300 2541.000000
40.665800 2643.000000
40.685300 2656.000000
40.704800 2606.000000
40.724300 2574.000000
40.743700 2629.000000
40.763200 2587.000000
40.782700 2599.000000
40.802200 2719.000000
40.821700 2609.000000
40.841200 2605.000000
40.860600 2654.000000
40.880100 2601.000000
40.899600 2583.000000
40.919100 2523.000000
40.938600 2470.000000
40.958100 2516.000000
40.977500 2541.000000
40.997000 2691.000000
41.016500 2694.000000
41.036000 2536.000000
41.055500 2624.000000
41.074900 2586.000000
41.094400 2668.000000
41.113900 2572.000000
41.133400 2663.000000
41.152900 2622.000000
41.172400 2602.000000
41.191800 2599.000000
41.211300 2581.000000
41.230800 2604.000000
41.250300 2558.000000
41.269800 2659.000000
41.289300 2624.000000
41.308700 2576.000000
41.328200 2586.000000
41.347700 2667.000000
41.367200 2643.000000
41.386700 2589.000000
41.406100 2661.000000
41.425600 2590.000000
41.445100 2504.000000
41.464600 2599.000000
41.484100 2581.000000
41.503600 2709.000000
41.523000 2581.000000
41.542500 2670.000000
41.562000 2596.000000
41.581500 2583.000000
41.601000 2655.000000
41.620500 2616.000000
41.639900 2633.000000
41.659400 2589.000000
41.678900 2600.000000
41.698400 2609.000000
41.717900 2605.000000
41.737300 2690.000000
41.756800 2590.000000
41.776300 2614.000000
41.795800 2591.000000
41.815300 2669.000000
41.834800 2671.000000
41.854200 2606.000000
41.873700 2704.000000
41.893200 2594.000000
41.912700 2611.000000
41.932200 2623.000000
41.951700 2679.000000
41.971100 2545.000000
41.990600 2596.000000
42.010100 2689.000000
42.029600 2544.000000
42.049100 2617.000000
42.068500 2581.000000
42.088000 2693.000000
42.107500 2567.000000
42.127000 2539.000000
42.146500 2600.000000
42.166000 2584.000000
42.185400 2555.000000
42.204900 2533.000000
42.224400 2663.000000
42.243900 2622.000000
42.263400 2595.000000
42.282900 2578.000000
42.302300 2607.000000
42.321800 2587.000000
42.341300 2576.000000
42.360800 2543.000000
42.380300 2612.000000
42.399800 2647.000000
42.419200 2638.000000
42.438700 2593.000000
42.458200 2640.000000
42.477700 2634.000000
42.497200 2567.000000
42.516600 2616.000000
42.536100 2669.000000
42.555600 2605.000000
42.575100 2676.000000
42.594600 2550.000000
42.614100 2519.000000
42.633500 2687.000000
42.653000 2664.000000
42.672500 2709.000000
42.692000 2641.000000
42.711500 2610.000000
42.731000 2578.000000
42.750400 2626.000000
42.769900 2653.000000
42.789400 2591.000000
42.808900 2752.000000
42.828400 2660.000000
42.847800 2664.000000
42.867300 2609.000000
42.886800 2576.000000
42.906300 2766.000000
42.925800 2729.000000
42.945300 2760.000000
42.964700 2842.000000
42.984200 2817.000000
43.003700 2983.000000
43.023200 3155.000000
43.042700 3579.000000
43.062200 3990.000000
43.081600 3843.000000
43.101100 3342.000000
43.120600 3221.000000
43.140100 3224.000000
43.159600 3361.000000
43.179000 3443.000000
43.198500 3233.000000
43.218000 3068.000000
43.237500 2876.000000
43.257000 2951.000000
43.276500 2792.000000
43.295900 2861.000000
43.315400 2765.000000
43.334900 2664.000000
43.354400 2657.000000
43.373900 2676.000000
43.393300 2660.000000
43.412800 2675.000000
43.432300 2649.000000
43.451800 2614.000000
43.471300 2605.000000
43.490800 2693.000000
43.510200 2563.000000
43.529700 2696.000000
43.549200 2621.000000
43.568700 2622.000000
43.588200 2703.000000
43.607700 2611.000000
43.627100 2568.000000
43.646600 2618.000000
43.666100 2641.000000
43.685600 2606.000000
43.705100 2671.000000
43.724600 2688.000000
43.744000 2629.000000
43.763500 2623.000000
43.783000 2719.000000
43.802500 2600.000000
43.822000 2564.000000
43.841400 2545.000000
43.860900 2557.000000
43.880400 2528.000000
43.899900 2663.000000
43.919400 2605.000000
43.938900 2659.000000
43.958300 2632.000000
43.977800 2608.000000
43.997300 2613.000000
44.016800 2560.000000
44.036300 2583.000000
44.055800 2716.000000
44.075200 2579.000000
44.094700 2639.000000
44.114200 2630.000000
44.133700 2678.000000
44.153200 2565.000000
44.172600 2596.000000
44.192100 2628.000000
44.211600 2620.000000
44.231100 2586.000000
44.250600 2587.000000
44.270100 2601.000000
44.289500 2607.000000
44.309000 2602.000000
44.328500 2625.000000
44.348000 2615.000000
44.367500 2697.000000
44.387000 2596.000000
44.406400 2620.000000
44.425900 2627.000000
44.445400 2588.000000
44.464900 2692.000000
44.484400 2551.000000
44.503800 2701.000000
44.523300 2612.000000
44.542800 2621.000000
44.562300 2601.000000
44.581800 2638.000000
44.601300 2644.000000
44.620700 2576.000000
44.640200 2585.000000
44.659700 2600.000000
44.679200 2636.000000
44.698700 2599.000000
44.718100 2634.000000
44.737600 2640.000000
44.757100 2641.000000
44.776600 2618.000000
44.796100 2600.000000
44.815600 2662.000000
44.835000 2623.000000
44.854500 2567.000000
44.874000 2619.000000
44.893500 2560.000000
44.913000 2641.000000
44.932500 2577.000000
44.951900 2604.000000
44.971400 2693.000000
44.990900 2720.000000
45.010400 2656.000000
45.029900 2646.000000
45.049400 2653.000000
45.068800 2524.000000
45.088300 2617.000000
45.107800 2744.000000
45.127300 2613.000000
45.146800 2572.000000
45.166200 2681.000000
45.185700 2621.000000
45.205200 2607.000000
45.224700 2710.000000
45.244200 2574.000000
45.263700 2714.000000
45.283100 2700.000000
45.302600 2585.000000
45.322100 2615.000000
45.341600 2568.000000
45.361100 2626.000000
45.380600 2614.000000
45.400000 2583.000000
45.419500 2560.000000
45.439000 2630.000000
45.458500 2639.000000
45.478000 2618.000000
45.497400 2606.000000
45.516900 2602.000000
45.536400 2551.000000
45.555900 2723.000000
45.575400 2698.000000
45.594900 2573.000000
45.614300 2597.000000
45.633800 2699.000000
45.653300 2591.000000
45.672800 2581.000000
45.692300 2687.000000
45.711800 2657.000000
45.731200 2621.000000
45.750700 2639.000000
45.770200 2603.000000
45.789700 2647.000000
45.809200 2744.000000
45.828600 2639.000000
45.848100 2575.000000
45.867600 2593.000000
45.887100 2683.000000
45.906600 2612.000000
45.926100 2610.000000
45.945500 2555.000000
45.965000 2501.000000
45.984500 2725.000000
46.004000 2612.000000
46.023500 2655.000000
46.043000 2597.000000
46.062400 2657.000000
46.081900 2542.000000
46.101400 2630.000000
46.120900 2650.000000
46.140400 2618.000000
46.159800 2655.000000
46.179300 2555.000000
46.198800 2715.000000
46.218300 2576.000000
46.237800 2678.000000
46.257300 2515.000000
46.276700 2599.000000
46.296200 2658.000000
46.315700 2662.000000
46.335200 2631.000000
46.354700 2567.000000
46.374200 2714.000000
46.393600 2669.000000
46.413100 2711.000000
46.432600 2877.000000
46.452100 2709.000000
46.471600 2656.000000
46.491000 2737.000000
46.510500 2737.000000
46.530000 2644.000000
46.549500 2671.000000
46.569000 2718.000000
46.588500 2628.000000
46.607900 2677.000000
46.627400 2690.000000
46.646900 2514.000000
46.666400 2649.000000
46.685900 2683.000000
46.705400 2621.000000
46.724800 2606.000000
46.744300 2563.000000
46.763800 2541.000000
46.783300 2695.000000
46.802800 2640.000000
46.822200 2735.000000
46.841700 2647.000000
46.861200 2729.000000
46.880700 2635.000000
46.900200 2698.000000
46.919700 2681.000000
46.939100 2635.000000
46.958600 2640.000000
46.978100 2659.000000
46.997600 2630.000000
47.017100 2740.000000
47.036600 2665.000000
47.056000 2680.000000
47.075500 2669.000000
47.095000 2701.000000
47.114500 2698.000000
47.134000 2839.000000
47.153400 2757.000000
47.172900 2747.000000
47.192400 2704.000000
47.211900 2619.000000
47.231400 2701.000000
47.250900 2708.000000
47.270300 2687.000000
47.289800 2812.000000
47.309300 2663.000000
47.328800 2623.000000
47.348300 2635.000000
47.367800 2682.000000
47.387200 2692.000000
47.406700 2700.000000
47.426200 2697.000000
47.445700 2731.000000
47.465200 2739.000000
47.484600 2735.000000
47.504100 2698.000000
47.523600 2851.000000
47.543100 2873.000000
47.562600 2928.000000
47.582100 2846.000000
47.601500 2857.000000
47.621000 2851.000000
47.640500 2894.000000
47.660000 2809.000000
47.679500 2903.000000
47.699000 2836.000000
47.718400 2860.000000
47.737900 2754.000000
47.757400 2763.000000
47.776900 2720.000000
47.796400 2635.000000
47.815800 2694.000000
47.835300 2730.000000
47.854800 2685.000000
47.874300 2723.000000
47.893800 2731.000000
47.913300 2673.000000
47.932700 2642.000000
47.952200 2683.000000
47.971700 2658.000000
47.991200 2701.000000
48.010700 2651.000000
48.030200 2665.000000
48.049600 2635.000000
48.069100 2644.000000
48.088600 2566.000000
48.108100 2700.000000
48.127600 2685.000000
48.147000 2703.000000
48.166500 2602.000000
48.186000 2630.000000
48.205500 2648.000000
48.225000 2709.000000
48.244500 2638.000000
48.263900 2696.000000
48.283400 2735.000000
48.302900 2673.000000
48.322400 2790.000000
48.341900 2685.000000
48.361400 2788.000000
48.380800 2679.000000
48.400300 2669.000000
48.419800 2740.000000
48.439300 2713.000000
48.458800 2741.000000
48.478200 2884.000000
48.497700 3004.000000
48.517200 3146.000000
48.536700 3108.000000
48.556200 3228.000000
48.575700 3309.000000
48.595100 3057.000000
48.614600 3154.000000
48.634100 3035.000000
48.653600 3182.000000
48.673100 3008.000000
48.692600 3010.000000
48.712000 2933.000000
48.731500 2862.000000
48.751000 2753.000000
48.770500 2795.000000
48.790000 2813.000000
48.809400 2738.000000
48.828900 2700.000000
48.848400 2721.000000
48.867900 2744.000000
48.887400 2719.000000
48.906900 2650.000000
48.926300 2659.000000
48.945800 2654.000000
48.965300 2750.000000
48.984800 2633.000000
49.004300 2615.000000
49.023800 2697.000000
49.043200 2661.000000
49.062700 2659.000000
49.082200 2582.000000
49.101700 2679.000000
49.121200 2642.000000
49.140600 2652.000000
49.160100 2663.000000
49.179600 2714.000000
49.199100 2690.000000
49.218600 2692.000000
49.238100 2647.000000
49.257500 2711.000000
49.277000 2683.000000
49.296500 2743.000000
49.316000 2663.000000
49.335500 2618.000000
49.355000 2750.000000
49.374400 2765.000000
49.393900 2720.000000
49.413400 2655.000000
49.432900 2697.000000
49.452400 2706.000000
49.471800 2641.000000
49.491300 2714.000000
49.510800 2647.000000
49.530300 2740.000000
49.549800 2700.000000
49.569300 2677.000000
49.588700 2716.000000
49.608200 2676.000000
49.627700 2693.000000
49.647200 2658.000000
49.666700 2642.000000
49.686200 2633.000000
49.705600 2603.000000
49.725100 2676.000000
49.744600 2649.000000
49.764100 2682.000000
49.783600 2600.000000
49.803100 2680.000000
49.822500 2570.000000
49.842000 2755.000000
49.861500 2618.000000
49.881000 2623.000000
49.900500 2609.000000
49.919900 2640.000000
49.939400 2705.000000
49.958900 2714.000000
49.978400 2610.000000
49.997900 2576.000000
50.017400 2680.000000
50.036800 2589.000000
50.056300 2604.000000
50.075800 2604.000000
50.095300 2767.000000
50.114800 2765.000000
50.134300 2734.000000
50.153700 2786.000000
50.173200 2765.000000
50.192700 2782.000000
50.212200 2652.000000
50.231700 2721.000000
50.251100 2696.000000
50.270600 2653.000000
50.290100 2691.000000
50.309600 2741.000000
50.329100 2774.000000
50.348600 2606.000000
50.368000 2684.000000
50.387500 2590.000000
50.407000 2652.000000
50.426500 2661.000000
50.446000 2669.000000
50.465500 2561.000000
50.484900 2620.000000
50.504400 2696.000000
50.523900 2671.000000
50.543400 2626.000000
50.562900 2647.000000
50.582300 2636.000000
50.601800 2725.000000
50.621300 2677.000000
50.640800 2707.000000
50.660300 2779.000000
50.679800 2627.000000
50.699200 2712.000000
50.718700 2687.000000
50.738200 2723.000000
50.757700 2585.000000
50.777200 2614.000000
50.796700 2691.000000
50.816100 2723.000000
50.835600 2631.000000
50.855100 2729.000000
50.874600 2696.000000
50.894100 2648.000000
50.913500 2711.000000
50.933000 2616.000000
50.952500 2555.000000
50.972000 2698.000000
50.991500 2677.000000
51.011000 2656.000000
51.030400 2707.000000
51.049900 2782.000000
51.069400 2665.000000
51.088900 2627.000000
51.108400 2671.000000
51.127800 2631.000000
51.147300 2631.000000
51.166800 2643.000000
51.186300 2669.000000
51.205800 2607.000000
51.225300 2577.000000
51.244700 2707.000000
51.264200 2683.000000
51.283700 2729.000000
51.303200 2568.000000
51.322700 2658.000000
51.342200 2586.000000
51.361600 2652.000000
51.381100 2756.000000
51.400600 2628.000000
51.420100 2707.000000
51.439600 2602.000000
51.459100 2717.000000
51.478500 2684.000000
51.498000 2725.000000
51.517500 2712.000000
51.537000 2686.000000
51.556500 2679.000000
51.575900 2679.000000
51.595400 2716.000000
51.614900 2610.000000
51.634400 2649.000000
51.653900 2709.000000
51.673400 2649.000000
51.692800 2718.000000
51.712300 2542.000000
51.731800 2672.000000
51.751300 2708.000000
51.770800 2643.000000
51.790300 2701.000000
51.809700 2686.000000
51.829200 2584.000000
51.848700 2691.000000
51.868200 2725.000000
51.887700 2609.000000
51.907100 2720.000000
51.926600 2727.000000
51.946100 2766.000000
51.965600 2712.000000
51.985100 2626.000000
52.004600 2564.000000
52.024000 2678.000000
52.043500 2674.000000
52.063000 2684.000000
52.082500 2641.000000
52.102000 2694.000000
52.121400 2668.000000
52.140900 2713.000000
52.160400 2656.000000
52.179900 2612.000000
52.199400 2648.000000
52.218900 2674.000000
52.238300 2745.000000
52.257800 2685.000000
52.277300 2665.000000
52.296800 2651.000000
52.316300 2759.000000
52.335800 2604.000000
52.355200 2609.000000
52.374700 2692.000000
52.394200 2604.000000
52.413700 2764.000000
52.433200 2756.000000
52.452700 2698.000000
52.472100 2748.000000
52.491600 2623.000000
52.511100 2728.000000
52.530600 2651.000000
52.550100 2685.000000
52.569500 2665.000000
52.589000 2792.000000
52.608500 2707.000000
52.628000 2700.000000
52.647500 2808.000000
52.667000 2744.000000
52.686400 2831.000000
52.705900 2644.000000
52.725400 2732.000000
52.744900 2750.000000
52.764400 2657.000000
52.783900 2710.000000
52.803300 2753.000000
52.822800 2715.000000
52.842300 2661.000000
52.861800 2667.000000
52.881300 2701.000000
52.900700 2709.000000
52.920200 2745.000000
52.939700 2700.000000
52.959200 2729.000000
52.978700 2664.000000
52.998200 2719.000000
53.017600 2604.000000
53.037100 2692.000000
53.056600 2653.000000
53.076100 2640.000000
53.095600 2700.000000
53.115100 2729.000000
53.134500 2644.000000
53.154000 2697.000000
53.173500 2601.000000
53.193000 2791.000000
53.212500 2754.000000
53.231900 2748.000000
53.251400 2731.000000
53.270900 2767.000000
53.290400 2712.000000
53.309900 2833.000000
53.329400 2823.000000
53.348800 2860.000000
53.368300 3102.000000
53.387800 3200.000000
53.407300 3369.000000
53.426800 3396.000000
53.446300 3227.000000
53.465700 3000.000000
53.485200 3030.000000
53.504700 2913.000000
53.524200 2941.000000
53.543700 3126.000000
53.563100 3132.000000
53.582600 3117.000000
53.602100 2892.000000
53.621600 2752.000000
53.641100 2751.000000
53.660600 2736.000000
53.680000 2738.000000
53.699500 2736.000000
53.719000 2677.000000
53.738500 2610.000000
53.758000 2668.000000
53.777500 2624.000000
53.796900 2734.000000
53.816400 2617.000000
53.835900 2710.000000
53.855400 2747.000000
53.874900 2774.000000
53.894300 2725.000000
53.913800 2808.000000
53.933300 2704.000000
53.952800 2719.000000
53.972300 2718.000000
53.991800 2776.000000
54.011200 2735.000000
54.030700 2751.000000
54.050200 2772.000000
54.069700 2761.000000
54.089200 2761.000000
54.108700 2756.000000
54.128100 2817.000000
54.147600 2781.000000
54.167100 2803.000000
54.186600 2624.000000
54.206100 2792.000000
54.225500 2771.000000
54.245000 2735.000000
54.264500 2762.000000
54.284000 2726.000000
54.303500 2696.000000
54.323000 2730.000000
54.342400 2769.000000
54.361900 2711.000000
54.381400 2771.000000
54.400900 2666.000000
54.420400 2740.000000
54.439900 2788.000000
54.459300 2740.000000
54.478800 2721.000000
54.498300 2710.000000
54.517800 2717.000000
54.537300 2727.000000
54.556700 2769.000000
54.576200 2658.000000
54.595700 2748.000000
54.615200 2609.000000
54.634700 2699.000000
54.654200 2690.000000
54.673600 2730.000000
54.693100 2755.000000
54.712600 2734.000000
54.732100 2743.000000
54.751600 2694.000000
54.771100 2678.000000
54.790500 2677.000000
54.810000 2715.000000
54.829500 2735.000000
54.849000 2693.000000
54.868500 2714.000000
54.887900 2789.000000
54.907400 2793.000000
54.926900 2998.000000
54.946400 2878.000000
54.965900 2817.000000
54.985400 2757.000000
55.004800 2738.000000
55.024300 2702.000000
55.043800 2752.000000
55.063300 2752.000000
55.082800 2813.000000
55.102300 2804.000000
55.121700 2723.000000
55.141200 2806.000000
55.160700 2777.000000
55.180200 2640.000000
55.199700 2761.000000
55.219100 2617.000000
55.238600 2728.000000
55.258100 2740.000000
55.277600 2681.000000
55.297100 2727.000000
55.316600 2725.000000
55.336000 2839.000000
55.355500 2727.000000
55.375000 2659.000000
55.394500 2764.000000
55.414000 2687.000000
55.433500 2683.000000
55.452900 2708.000000
55.472400 2761.000000
55.491900 2786.000000
55.511400 2658.000000
55.530900 2697.000000
55.550300 2700.000000
55.569800 2639.000000
55.589300 2739.000000
55.608800 2703.000000
55.628300 2726.000000
55.647800 2661.000000
55.667200 2705.000000
55.686700 2734.000000
55.706200 2675.000000
55.725700 2771.000000
55.745200 2642.000000
55.764700 2803.000000
55.784100 2747.000000
55.803600 2686.000000
55.823100 2718.000000
55.842600 2691.000000
55.862100 2720.000000
55.881600 2735.000000
55.901000 2721.000000
55.920500 2701.000000
55.940000 2759.000000
55.959500 2596.000000
55.979000 2756.000000
55.998400 2837.000000
56.017900 2705.000000
56.037400 2654.000000
56.056900 2712.000000
56.076400 2781.000000
56.095900 2730.000000
56.115300 2706.000000
56.134800 2762.000000
56.154300 2806.000000
56.173800 2657.000000
56.193300 2727.000000
56.212700 2669.000000
56.232200 2602.000000
56.251700 2719.000000
56.271200 2678.000000
56.290700 2633.000000
56.310200 2735.000000
56.329600 2752.000000
56.349100 2775.000000
56.368600 2773.000000
56.388100 2701.000000
56.407600 2758.000000
56.427100 2775.000000
56.446500 2663.000000
56.466000 2722.000000
56.485500 2702.000000
56.505000 2777.000000
56.524500 2748.000000
56.544000 2744.000000
56.563400 2757.000000
56.582900 2651.000000
56.602400 2781.000000
56.621900 2797.000000
56.641400 2760.000000
56.660800 2847.000000
56.680300 2779.000000
56.699800 2750.000000
56.719300 2805.000000
56.738800 2863.000000
56.758300 2787.000000
56.777700 2768.000000
56.797200 2786.000000
56.816700 2964.000000
56.836200 2982.000000
56.855700 3066.000000
56.875100 3137.000000
56.894600 3515.000000
56.914100 3817.000000
56.933600 4389.000000
56.953100 4611.000000
56.972600 4100.000000
56.992000 3678.000000
57.011500 3357.000000
57.031000 3210.000000
57.050500 3375.000000
57.070000 3429.000000
57.089500 3741.000000
57.108900 3779.000000
57.128400 3530.000000
57.147900 3456.000000
57.167400 3293.000000
57.186900 2984.000000
57.206400 3138.000000
57.225800 2894.000000
57.245300 2904.000000
57.264800 2819.000000
57.284300 2962.000000
57.303800 2911.000000
57.323200 2857.000000
57.342700 2956.000000
57.362200 2889.000000
57.381700 2919.000000
57.401200 2846.000000
57.420700 2841.000000
57.440100 3002.000000
57.459600 2871.000000
57.479100 2858.000000
57.498600 2809.000000
57.518100 2857.000000
57.537600 2827.000000
57.557000 2724.000000
57.576500 2832.000000
57.596000 2770.000000
57.615500 2815.000000
57.635000 2839.000000
57.654400 2762.000000
57.673900 2777.000000
57.693400 2650.000000
57.712900 2814.000000
57.732400 2726.000000
57.751900 2724.000000
57.771300 2759.000000
57.790800 2694.000000
57.810300 2787.000000
57.829800 2730.000000
57.849300 2701.000000
57.868700 2627.000000
57.888200 2837.000000
57.907700 2729.000000
57.927200 2746.000000
57.946700 2762.000000
57.966200 2704.000000
57.985600 2759.000000
58.005100 2786.000000
58.024600 2687.000000
58.044100 2826.000000
58.063600 2874.000000
58.083100 2698.000000
58.102500 2734.000000
58.122000 2671.000000
58.141500 2766.000000
58.161000 2802.000000
58.180500 2719.000000
58.200000 2709.000000
58.219400 2657.000000
58.238900 2751.000000
58.258400 2735.000000
58.277900 2885.000000
58.297400 2818.000000
58.316800 2788.000000
58.336300 2711.000000
58.355800 2693.000000
58.375300 2671.000000
58.394800 2753.000000
58.414300 2788.000000
58.433700 2798.000000
58.453200 2770.000000
58.472700 2705.000000
58.492200 2762.000000
58.511700 2712.000000
58.531200 2785.000000
58.550600 2857.000000
58.570100 2656.000000
58.589600 2851.000000
58.609100 2696.000000
58.628600 2747.000000
58.648000 2814.000000
58.667500 2772.000000
58.687000 2751.000000
58.706500 2836.000000
58.726000 2697.000000
58.745500 2745.000000
58.764900 2843.000000
58.784400 2667.000000
58.803900 2760.000000
58.823400 2692.000000
58.842900 2794.000000
58.862300 2767.000000
58.881800 2740.000000
58.901300 2807.000000
58.920800 2693.000000
58.940300 2732.000000
58.959800 2822.000000
58.979200 2712.000000
58.998700 2680.000000
59.018200 2698.000000
59.037700 2795.000000
59.057200 2755.000000
59.076700 2753.000000
59.096100 2790.000000
59.115600 2860.000000
59.135100 2781.000000
59.154600 2716.000000
59.174100 2786.000000
59.193600 2743.000000
59.213000 2777.000000
59.232500 2795.000000
59.252000 2620.000000
59.271500 2742.000000
59.291000 2723.000000
59.310400 2730.000000
59.329900 2667.000000
59.349400 2857.000000
59.368900 2807.000000
59.388400 2748.000000
59.407900 2704.000000
59.427300 2665.000000
59.446800 2786.000000
59.466300 2708.000000
59.485800 2769.000000
59.505300 2797.000000
59.524800 2747.000000
59.544200 2602.000000
59.563700 2695.000000
59.583200 2813.000000
59.602700 2707.000000
59.622200 2702.000000
59.641600 2709.000000
59.661100 2702.000000
59.680600 2762.000000
59.700100 2745.000000
59.719600 2780.000000
59.739100 2704.000000
59.758500 2789.000000
59.778000 2740.000000
59.797500 2784.000000
59.817000 2754.000000
59.836500 2796.000000
59.856000 2780.000000
59.875400 2819.000000
59.894900 2778.000000
59.914400 2759.000000
59.933900 2637.000000
59.953400 2768.000000
59.972800 2795.000000
59.992300 2829.000000
60.011800 2727.000000
60.031300 2826.000000
60.050800 2811.000000
60.070300 2815.000000
60.089700 2692.000000
60.109200 2862.000000
60.128700 2751.000000
60.148200 2857.000000
60.167700 2754.000000
60.187200 2796.000000
60.206600 2695.000000
60.226100 2811.000000
60.245600 2833.000000
60.265100 2763.000000
60.284600 2821.000000
60.304000 2698.000000
60.323500 2745.000000
60.343000 2788.000000
60.362500 2765.000000
60.382000 2733.000000
60.401500 2798.000000
60.420900 2852.000000
60.440400 2783.000000
60.459900 2790.000000
60.479400 2697.000000
60.498900 2712.000000
60.518400 2755.000000
60.537800 2815.000000
60.557300 2811.000000
60.576800 2792.000000
60.596300 2806.000000
60.615800 2744.000000
60.635200 2797.000000
60.654700 2848.000000
60.674200 2799.000000
60.693700 2795.000000
60.713200 2750.000000
60.732700 2844.000000
60.752100 2861.000000
60.771600 2768.000000
60.791100 2772.000000
60.810600 2870.000000
60.830100 2705.000000
60.849600 2777.000000
60.869000 2745.000000
60.888500 2872.000000
60.908000 2784.000000
60.927500 2838.000000
60.947000 2794.000000
60.966400 2706.000000
60.985900 2851.000000
61.005400 2906.000000
61.024900 2921.000000
61.044400 2769.000000
61.063900 2878.000000
61.083300 2759.000000
61.102800 2790.000000
61.122300 2884.000000
61.141800 2876.000000
61.161300 2821.000000
61.180800 2850.000000
61.200200 2778.000000
61.219700 2821.000000
61.239200 2722.000000
61.258700 2812.000000
61.278200 2799.000000
61.297600 2868.000000
61.317100 2835.000000
61.336600 2815.000000
61.356100 2809.000000
61.375600 2841.000000
61.395100 2750.000000
61.414500 2898.000000
61.434000 2684.000000
61.453500 2878.000000
61.473000 2862.000000
61.492500 2829.000000
61.511900 2889.000000
61.531400 2727.000000
61.550900 2746.000000
61.570400 2855.000000
61.589900 2818.000000
61.609400 2754.000000
61.628800 2704.000000
61.648300 2835.000000
61.667800 2760.000000
61.687300 2809.000000
61.706800 2766.000000
61.726300 2795.000000
61.745700 2778.000000
61.765200 2871.000000
61.784700 2710.000000
61.804200 2772.000000
61.823700 2782.000000
61.843200 2732.000000
61.862600 2717.000000
61.882100 2780.000000
61.901600 2730.000000
61.921100 2829.000000
61.940600 2791.000000
61.960100 2742.000000
61.979500 2777.000000
61.999000 2781.000000
62.018500 2832.000000
62.038000 2642.000000
62.057500 2823.000000
62.076900 2811.000000
62.096400 2824.000000
62.115900 2853.000000
62.135400 2739.000000
62.154900 2757.000000
62.174400 2764.000000
62.193800 2749.000000
62.213300 2791.000000
62.232800 2816.000000
62.252300 2780.000000
62.271800 2806.000000
62.291200 2899.000000
62.310700 2887.000000
62.330200 2884.000000
62.349700 2912.000000
62.369200 2917.000000
62.388700 2983.000000
62.408100 3046.000000
62.427600 3096.000000
62.447100 3235.000000
62.466600 3305.000000
62.486100 3741.000000
62.505600 3999.000000
62.525000 4125.000000
62.544500 4098.000000
62.564000 3781.000000
62.583500 3476.000000
62.603000 3371.000000
62.622400 3425.000000
62.641900 3332.000000
62.661400 3384.000000
62.680900 3517.000000
62.700400 3576.000000
62.719900 3432.000000
62.739300 3337.000000
62.758800 3142.000000
62.778300 3092.000000
62.797800 3023.000000
62.817300 2883.000000
62.836800 2844.000000
62.856200 2853.000000
62.875700 2858.000000
62.895200 3010.000000
62.914700 2884.000000
62.934200 2807.000000
62.953600 2837.000000
62.973100 2756.000000
62.992600 2883.000000
63.012100 2906.000000
63.031600 2819.000000
63.051100 2884.000000
63.070500 2761.000000
63.090000 2818.000000
63.109500 2797.000000
63.129000 2832.000000
63.148500 2810.000000
63.168000 2778.000000
63.187400 2851.000000
63.206900 2766.000000
63.226400 2856.000000
63.245900 2808.000000
63.265400 2758.000000
63.284800 2843.000000
63.304300 2904.000000
63.323800 2835.000000
63.343300 2738.000000
63.362800 2783.000000
63.382300 2947.000000
63.401700 2853.000000
63.421200 2775.000000
63.440700 2872.000000
63.460200 2810.000000
63.479700 2810.000000
63.499200 2707.000000
63.518600 2813.000000
63.538100 2877.000000
63.557600 2849.000000
63.577100 2773.000000
63.596600 2868.000000
63.616000 2816.000000
63.635500 2821.000000
63.655000 2849.000000
63.674500 2730.000000
63.694000 2753.000000
63.713500 2741.000000
63.732900 2754.000000
63.752400 2752.000000
63.771900 2795.000000
63.791400 2769.000000
63.810900 2706.000000
63.830400 2786.000000
63.849800 2750.000000
63.869300 2722.000000
63.888800 2851.000000
63.908300 2749.000000
63.927800 2790.000000
63.947200 2856.000000
63.966700 2808.000000
63.986200 2788.000000
64.005700 2837.000000
64.025200 2859.000000
64.044700 2806.000000
64.064100 2770.000000
64.083600 2882.000000
64.103100 2866.000000
64.122600 2757.000000
64.142100 2851.000000
64.161600 2764.000000
64.181000 2822.000000
64.200500 2791.000000
64.220000 2794.000000
64.239500 2822.000000
64.259000 2821.000000
64.278500 2815.000000
64.297900 2755.000000
64.317400 2855.000000
64.336900 2751.000000
64.356400 2769.000000
64.375900 2736.000000
64.395300 2814.000000
64.414800 2810.000000
64.434300 2820.000000
64.453800 2877.000000
64.473300 2850.000000
64.492800 2750.000000
64.512200 2860.000000
64.531700 2780.000000
64.551200 2852.000000
64.570700 2787.000000
64.590200 2899.000000
64.609700 2762.000000
64.629100 2898.000000
64.648600 2860.000000
64.668100 2859.000000
64.687600 2862.000000
64.707100 2865.000000
64.726500 2828.000000
64.746000 2801.000000
64.765500 2942.000000
64.785000 2789.000000
64.804500 2813.000000
64.824000 2824.000000
64.843400 2856.000000
64.862900 2876.000000
64.882400 2888.000000
64.901900 2881.000000
64.921400 2861.000000
64.940900 2854.000000
64.960300 2747.000000
64.979800 2738.000000
64.999300 2923.000000
65.018800 2779.000000
65.038300 2892.000000
65.057700 2848.000000
65.077200 2798.000000
65.096700 2908.000000
65.116200 2799.000000
65.135700 2921.000000
65.155200 2771.000000
65.174600 2766.000000
65.194100 2773.000000
65.213600 2783.000000
65.233100 2873.000000
65.252600 2826.000000
65.272100 2825.000000
65.291500 2803.000000
65.311000 2839.000000
65.330500 2784.000000
65.350000 2782.000000
65.369500 2840.000000
65.388900 2789.000000
65.408400 2795.000000
65.427900 2760.000000
65.447400 2827.000000
65.466900 2752.000000
65.486400 2869.000000
65.505800 2805.000000
65.525300 2828.000000
65.544800 2871.000000
65.564300 2826.000000
65.583800 2936.000000
65.603300 2893.000000
65.622700 2934.000000
65.642200 2978.000000
65.661700 3108.000000
65.681200 3115.000000
65.700700 3160.000000
65.720100 3249.000000
65.739600 3312.000000
65.759100 3262.000000
65.778600 3245.000000
65.798100 3165.000000
65.817600 3218.000000
65.837000 3029.000000
65.856500 3068.000000
65.876000 2989.000000
65.895500 3047.000000
65.915000 3120.000000
65.934500 3067.000000
65.953900 3095.000000
65.973400 2971.000000
65.992900 3050.000000
66.012400 2959.000000
66.031900 2884.000000
66.051300 2863.000000
66.070800 2830.000000
66.090300 2922.000000
66.109800 2819.000000
66.129300 2917.000000
66.148800 2879.000000
66.168200 2783.000000
66.187700 2794.000000
66.207200 2811.000000
66.226700 2776.000000
66.246200 2863.000000
66.265700 2798.000000
66.285100 2867.000000
66.304600 2813.000000
66.324100 2843.000000
66.343600 2941.000000
66.363100 2951.000000
66.382500 2852.000000
66.402000 2830.000000
66.421500 2810.000000
66.441000 2704.000000
66.460500 2829.000000
66.480000 2812.000000
66.499400 2789.000000
66.518900 2824.000000
66.538400 2818.000000
66.557900 2806.000000
66.577400 2790.000000
66.596900 2852.000000
66.616300 2776.000000
66.635800 2834.000000
66.655300 2843.000000
66.674800 2818.000000
66.694300 2806.000000
66.713700 2808.000000
66.733200 2874.000000
66.752700 2855.000000
66.772200 2832.000000
66.791700 2802.000000
66.811200 2824.000000
66.830600 2890.000000
66.850100 2761.000000
66.869600 2929.000000
66.889100 2825.000000
66.908600 2855.000000
66.928100 2894.000000
66.947500 2800.000000
66.967000 2832.000000
66.986500 2882.000000
67.006000 2867.000000
67.025500 2871.000000
67.044900 2794.000000
67.064400 2726.000000
67.083900 2941.000000
67.103400 2845.000000
67.122900 2795.000000
67.142400 2783.000000
67.161800 2817.000000
67.181300 2887.000000
67.200800 2774.000000
67.220300 2874.000000
67.239800 2826.000000
67.259300 2911.000000
67.278700 2821.000000
67.298200 2848.000000
67.317700 2767.000000
67.337200 2652.000000
67.356700 2789.000000
67.376100 2727.000000
67.395600 2711.000000
67.415100 2888.000000
67.434600 2828.000000
67.454100 2713.000000
67.473600 2805.000000
67.493000 2859.000000
67.512500 2831.000000
67.532000 2877.000000
67.551500 2746.000000
67.571000 2720.000000
67.590500 2759.000000
67.609900 2803.000000
67.629400 2807.000000
67.648900 2775.000000
67.668400 2833.000000
67.687900 2863.000000
67.707300 2751.000000
67.726800 2837.000000
67.746300 2742.000000
67.765800 2730.000000
67.785300 2820.000000
67.804800 2871.000000
67.824200 2812.000000
67.843700 2809.000000
67.863200 2773.000000
67.882700 2820.000000
67.902200 2862.000000
67.921700 2800.000000
67.941100 2848.000000
67.960600 2835.000000
67.980100 2832.000000
67.999600 2813.000000
