4.000000 1214.000000
4.019482 1209.000000
4.038965 1185.000000
4.058447 1163.000000
4.077929 1079.000000
4.097412 1124.000000
4.116894 1146.000000
4.136377 1084.000000
4.155859 1037.000000
4.175341 1078.000000
4.194824 1063.000000
4.214306 1046.000000
4.233788 1032.000000
4.253271 1010.000000
4.272753 961.000000
4.292236 1001.000000
4.311718 924.000000
4.331200 982.000000
4.350683 979.000000
4.370165 916.000000
4.389647 894.000000
4.409130 868.000000
4.428612 904.000000
4.448094 865.000000
4.467577 857.000000
4.487059 886.000000
4.506542 810.000000
4.526024 850.000000
4.545506 848.000000
4.564989 734.000000
4.584471 751.000000
4.603953 815.000000
4.623436 768.000000
4.642918 748.000000
4.662401 785.000000
4.681883 715.000000
4.701365 712.000000
4.720848 730.000000
4.740330 734.000000
4.759812 721.000000
4.779295 768.000000
4.798777 702.000000
4.818259 707.000000
4.837742 672.000000
4.857224 640.000000
4.876707 643.000000
4.896189 713.000000
4.915671 674.000000
4.935154 654.000000
4.954636 662.000000
4.974118 605.000000
4.993601 650.000000
5.013083 681.000000
5.032566 652.000000
5.052048 623.000000
5.071530 581.000000
5.091013 574.000000
5.110495 637.000000
5.129977 593.000000
5.149460 587.000000
5.168942 578.000000
5.188425 563.000000
5.207907 578.000000
5.227389 584.000000
5.246872 531.000000
5.266354 589.000000
5.285836 554.000000
5.305319 568.000000
5.324801 540.000000
5.344283 549.000000
5.363766 508.000000
5.383248 557.000000
5.402731 558.000000
5.422213 518.000000
5.441695 508.000000
5.461178 518.000000
5.480660 515.000000
5.500142 518.000000
5.519625 515.000000
5.539107 514.000000
5.558590 520.000000
5.578072 489.000000
5.597554 508.000000
5.617037 510.000000
5.636519 503.000000
5.656001 475.000000
5.675484 488.000000
5.694966 460.000000
5.714448 479.000000
5.733931 445.000000
5.753413 468.000000
5.772896 461.000000
5.792378 456.000000
5.811860 455.000000
5.831343 493.000000
5.850825 488.000000
5.870307 475.000000
5.889790 464.000000
5.909272 462.000000
5.928755 439.000000
5.948237 454.000000
5.967719 457.000000
5.987202 452.000000
6.006684 450.000000
6.026166 442.000000
6.045649 412.000000
6.065131 403.000000
6.084613 411.000000
6.104096 416.000000
6.123578 414.000000
6.143061 411.000000
6.162543 397.000000
6.182025 390.000000
6.201508 407.000000
6.220990 437.000000
6.240472 415.000000
6.259955 429.000000
6.279437 436.000000
6.298920 402.000000
6.318402 403.000000
6.337884 384.000000
6.357367 409.000000
6.376849 375.000000
6.396331 381.000000
6.415814 353.000000
6.435296 374.000000
6.454778 389.000000
6.474261 375.000000
6.493743 366.000000
6.513226 304.000000
6.532708 366.000000
6.552190 359.000000
6.571673 334.000000
6.591155 359.000000
6.610637 370.000000
6.630120 348.000000
6.649602 382.000000
6.669085 340.000000
6.688567 341.000000
6.708049 348.000000
6.727532 375.000000
6.747014 361.000000
6.766496 312.000000
6.785979 311.000000
6.805461 322.000000
6.824944 310.000000
6.844426 316.000000
6.863908 315.000000
6.883391 313.000000
6.902873 299.000000
6.922355 356.000000
6.941838 310.000000
6.961320 324.000000
6.980802 278.000000
7.000285 292.000000
7.019767 295.000000
7.039250 271.000000
7.058732 289.000000
7.078214 317.000000
7.097697 332.000000
7.117179 281.000000
7.136661 302.000000
7.156144 320.000000
7.175626 325.000000
7.195109 287.000000
7.214591 318.000000
7.234073 328.000000
7.253556 317.000000
7.273038 310.000000
7.292520 279.000000
7.312003 274.000000
7.331485 282.000000
7.350967 282.000000
7.370450 288.000000
7.389932 296.000000
7.409415 302.000000
7.428897 275.000000
7.448379 295.000000
7.467862 278.000000
7.487344 290.000000
7.506826 278.000000
7.526309 292.000000
7.545791 278.000000
7.565274 299.000000
7.584756 282.000000
7.604238 298.000000
7.623721 274.000000
7.643203 259.000000
7.662685 286.000000
7.682168 272.000000
7.701650 275.000000
7.721132 273.000000
7.740615 304.000000
7.760097 293.000000
7.779580 275.000000
7.799062 282.000000
7.818544 277.000000
7.838027 284.000000
7.857509 270.000000
7.876991 263.000000
7.896474 268.000000
7.915956 279.000000
7.935439 256.000000
7.954921 292.000000
7.974403 262.000000
7.993886 273.000000
8.013368 242.000000
8.032850 265.000000
8.052333 291.000000
8.071815 245.000000
8.091297 289.000000
8.110780 266.000000
8.130262 314.000000
8.149745 236.000000
8.169227 248.000000
8.188709 272.000000
8.208192 273.000000
8.227674 260.000000
8.247156 228.000000
8.266639 248.000000
8.286121 253.000000
8.305604 277.000000
8.325086 248.000000
8.344568 245.000000
8.364051 264.000000
8.383533 258.000000
8.403015 256.000000
8.422498 280.000000
8.441980 254.000000
8.461463 282.000000
8.480945 254.000000
8.500427 225.000000
8.519910 282.000000
8.539392 255.000000
8.558874 275.000000
8.578357 255.000000
8.597839 287.000000
8.617321 248.000000
8.636804 262.000000
8.656286 259.000000
8.675769 254.000000
8.695251 263.000000
8.714733 232.000000
8.734216 237.000000
8.753698 249.000000
8.773180 255.000000
8.792663 239.000000
8.812145 255.000000
8.831628 254.000000
8.851110 261.000000
8.870592 239.000000
8.890075 252.000000
8.909557 237.000000
8.929039 259.000000
8.948522 256.000000
8.968004 242.000000
8.987486 240.000000
9.006969 239.000000
9.026451 260.000000
9.045934 240.000000
9.065416 239.000000
9.084898 270.000000
9.104381 269.000000
9.123863 217.000000
9.143345 216.000000
9.162828 247.000000
9.182310 221.000000
9.201793 241.000000
9.221275 268.000000
9.240757 229.000000
9.260240 241.000000
9.279722 230.000000
9.299204 254.000000
9.318687 228.000000
9.338169 271.000000
9.357651 233.000000
9.377134 255.000000
9.396616 226.000000
9.416099 240.000000
9.435581 237.000000
9.455063 238.000000
9.474546 215.000000
9.494028 240.000000
9.513510 242.000000
9.532993 231.000000
9.552475 246.000000
9.571958 256.000000
9.591440 237.000000
9.610922 249.000000
9.630405 237.000000
9.649887 268.000000
9.669369 224.000000
9.688852 232.000000
9.708334 240.000000
9.727816 237.000000
9.747299 242.000000
9.766781 210.000000
9.786264 208.000000
9.805746 227.000000
9.825228 261.000000
9.844711 221.000000
9.864193 209.000000
9.883675 230.000000
9.903158 245.000000
9.922640 222.000000
9.942123 214.000000
9.961605 261.000000
9.981087 240.000000
10.000570 217.000000
10.020052 225.000000
10.039534 232.000000
10.059017 196.000000
10.078499 219.000000
10.097982 209.000000
10.117464 217.000000
10.136946 225.000000
10.156429 234.000000
10.175911 211.000000
10.195393 239.000000
10.214876 233.000000
10.234358 233.000000
10.253840 234.000000
10.273323 237.000000
10.292805 225.000000
10.312288 233.000000
10.331770 228.000000
10.351252 216.000000
10.370735 262.000000
10.390217 247.000000
10.409699 240.000000
10.429182 204.000000
10.448664 223.000000
10.468147 219.000000
10.487629 256.000000
10.507111 213.000000
10.526594 214.000000
10.546076 233.000000
10.565558 219.000000
10.585041 230.000000
10.604523 222.000000
10.624005 237.000000
10.643488 222.000000
10.662970 226.000000
10.682453 222.000000
10.701935 251.000000
10.721417 227.000000
10.740900 224.000000
10.760382 203.000000
10.779864 208.000000
10.799347 231.000000
10.818829 210.000000
10.838312 231.000000
10.857794 249.000000
10.877276 243.000000
10.896759 258.000000
10.916241 226.000000
10.935723 240.000000
10.955206 224.000000
10.974688 199.000000
10.994170 226.000000
11.013653 255.000000
11.033135 252.000000
11.052618 230.000000
11.072100 215.000000
11.091582 215.000000
11.111065 224.000000
11.130547 231.000000
11.150029 221.000000
11.169512 213.000000
11.188994 238.000000
11.208477 224.000000
11.227959 232.000000
11.247441 229.000000
11.266924 234.000000
11.286406 210.000000
11.305888 207.000000
11.325371 219.000000
11.344853 208.000000
11.364335 223.000000
11.383818 190.000000
11.403300 257.000000
11.422783 239.000000
11.442265 227.000000
11.461747 201.000000
11.481230 224.000000
11.500712 218.000000
11.520194 240.000000
11.539677 219.000000
11.559159 195.000000
11.578642 212.000000
11.598124 212.000000
11.617606 231.000000
11.637089 221.000000
11.656571 198.000000
11.676053 205.000000
11.695536 221.000000
11.715018 238.000000
11.734500 199.000000
11.753983 200.000000
11.773465 234.000000
11.792948 210.000000
11.812430 210.000000
11.831912 241.000000
11.851395 210.000000
11.870877 217.000000
11.890359 218.000000
11.909842 239.000000
11.929324 236.000000
11.948807 234.000000
11.968289 201.000000
11.987771 231.000000
12.007254 206.000000
12.026736 222.000000
12.046218 213.000000
12.065701 227.000000
12.085183 225.000000
12.104666 220.000000
12.124148 211.000000
12.143630 218.000000
12.163113 225.000000
12.182595 209.000000
12.202077 218.000000
12.221560 230.000000
12.241042 220.000000
12.260524 207.000000
12.280007 200.000000
12.299489 196.000000
12.318972 204.000000
12.338454 207.000000
12.357936 189.000000
12.377419 204.000000
12.396901 198.000000
12.416383 220.000000
12.435866 209.000000
12.455348 210.000000
12.474831 242.000000
12.494313 199.000000
12.513795 227.000000
12.533278 204.000000
12.552760 215.000000
12.572242 212.000000
12.591725 224.000000
12.611207 221.000000
12.630689 194.000000
12.650172 205.000000
12.669654 230.000000
12.689137 189.000000
12.708619 195.000000
12.728101 198.000000
12.747584 213.000000
12.767066 211.000000
12.786548 225.000000
12.806031 220.000000
12.825513 207.000000
12.844996 219.000000
12.864478 201.000000
12.883960 233.000000
12.903443 197.000000
12.922925 218.000000
12.942407 194.000000
12.961890 205.000000
12.981372 200.000000
13.000854 216.000000
13.020337 189.000000
13.039819 221.000000
13.059302 201.000000
13.078784 208.000000
13.098266 198.000000
13.117749 188.000000
13.137231 197.000000
13.156713 190.000000
13.176196 207.000000
13.195678 188.000000
13.215161 190.000000
13.234643 211.000000
13.254125 180.000000
13.273608 203.000000
13.293090 219.000000
13.312572 198.000000
13.332055 204.000000
13.351537 198.000000
13.371019 220.000000
13.390502 207.000000
13.409984 176.000000
13.429467 217.000000
13.448949 204.000000
13.468431 205.000000
13.487914 207.000000
13.507396 211.000000
13.526878 175.000000
13.546361 207.000000
13.565843 207.000000
13.585326 190.000000
13.604808 213.000000
13.624290 212.000000
13.643773 206.000000
13.663255 181.000000
13.682737 196.000000
13.702220 203.000000
13.721702 199.000000
13.741185 203.000000
13.760667 184.000000
13.780149 196.000000
13.799632 174.000000
13.819114 202.000000
13.838596 202.000000
13.858079 207.000000
13.877561 190.000000
13.897043 198.000000
13.916526 209.000000
13.936008 171.000000
13.955491 184.000000
13.974973 193.000000
13.994455 174.000000
14.013938 173.000000
14.033420 182.000000
14.052902 203.000000
14.072385 194.000000
14.091867 201.000000
14.111350 178.000000
14.130832 193.000000
14.150314 198.000000
14.169797 183.000000
14.189279 162.000000
14.208761 180.000000
14.228244 178.000000
14.247726 171.000000
14.267208 169.000000
14.286691 186.000000
14.306173 191.000000
14.325656 160.000000
14.345138 193.000000
14.364620 191.000000
14.384103 216.000000
14.403585 178.000000
14.423067 175.000000
14.442550 161.000000
14.462032 190.000000
14.481515 188.000000
14.500997 185.000000
14.520479 174.000000
14.539962 200.000000
14.559444 190.000000
14.578926 175.000000
14.598409 174.000000
14.617891 153.000000
14.637373 176.000000
14.656856 184.000000
14.676338 200.000000
14.695821 197.000000
14.715303 173.000000
14.734785 173.000000
14.754268 183.000000
14.773750 186.000000
14.793232 168.000000
14.812715 182.000000
14.832197 197.000000
14.851680 171.000000
14.871162 211.000000
14.890644 171.000000
14.910127 177.000000
14.929609 176.000000
14.949091 167.000000
14.968574 201.000000
14.988056 169.000000
15.007538 167.000000
15.027021 177.000000
15.046503 183.000000
15.065986 182.000000
15.085468 186.000000
15.104950 160.000000
15.124433 159.000000
15.143915 173.000000
15.163397 175.000000
15.182880 162.000000
15.202362 161.000000
15.221845 168.000000
15.241327 171.000000
15.260809 172.000000
15.280292 172.000000
15.299774 174.000000
15.319256 181.000000
15.338739 168.000000
15.358221 166.000000
15.377704 178.000000
15.397186 177.000000
15.416668 155.000000
15.436151 143.000000
15.455633 171.000000
15.475115 161.000000
15.494598 156.000000
15.514080 163.000000
15.533562 172.000000
15.553045 151.000000
15.572527 171.000000
15.592010 178.000000
15.611492 192.000000
15.630974 163.000000
15.650457 175.000000
15.669939 170.000000
15.689421 158.000000
15.708904 186.000000
15.728386 170.000000
15.747869 158.000000
15.767351 160.000000
15.786833 146.000000
15.806316 167.000000
15.825798 168.000000
15.845280 173.000000
15.864763 160.000000
15.884245 186.000000
15.903727 188.000000
15.923210 150.000000
15.942692 158.000000
15.962175 155.000000
15.981657 171.000000
16.001139 139.000000
16.020622 177.000000
16.040104 151.000000
16.059586 169.000000
16.079069 158.000000
16.098551 146.000000
16.118034 138.000000
16.137516 167.000000
16.156998 141.000000
16.176481 138.000000
16.195963 172.000000
16.215445 155.000000
16.234928 157.000000
16.254410 171.000000
16.273892 131.000000
16.293375 160.000000
16.312857 166.000000
16.332340 158.000000
16.351822 140.000000
16.371304 165.000000
16.390787 168.000000
16.410269 160.000000
16.429751 132.000000
16.449234 150.000000
16.468716 171.000000
16.488199 145.000000
16.507681 165.000000
16.527163 153.000000
16.546646 140.000000
16.566128 146.000000
16.585610 149.000000
16.605093 150.000000
16.624575 163.000000
16.644057 159.000000
16.663540 158.000000
16.683022 153.000000
16.702505 166.000000
16.721987 144.000000
16.741469 157.000000
16.760952 145.000000
16.780434 141.000000
16.799916 169.000000
16.819399 148.000000
16.838881 169.000000
16.858364 161.000000
16.877846 147.000000
16.897328 134.000000
16.916811 165.000000
16.936293 150.000000
16.955775 141.000000
16.975258 132.000000
16.994740 143.000000
17.014222 134.000000
17.033705 147.000000
17.053187 176.000000
17.072670 137.000000
17.092152 137.000000
17.111634 131.000000
17.131117 134.000000
17.150599 155.000000
17.170081 152.000000
17.189564 159.000000
17.209046 146.000000
17.228529 146.000000
17.248011 159.000000
17.267493 158.000000
17.286976 157.000000
17.306458 121.000000
17.325940 120.000000
17.345423 135.000000
17.364905 147.000000
17.384388 151.000000
17.403870 146.000000
17.423352 146.000000
17.442835 135.000000
17.462317 144.000000
17.481799 138.000000
17.501282 139.000000
17.520764 136.000000
17.540246 147.000000
17.559729 150.000000
17.579211 116.000000
17.598694 129.000000
17.618176 141.000000
17.637658 135.000000
17.657141 124.000000
17.676623 145.000000
17.696105 139.000000
17.715588 120.000000
17.735070 136.000000
17.754553 121.000000
17.774035 159.000000
17.793517 144.000000
17.813000 166.000000
17.832482 152.000000
17.851964 130.000000
17.871447 146.000000
17.890929 134.000000
17.910411 137.000000
17.929894 147.000000
17.949376 150.000000
17.968859 130.000000
17.988341 129.000000
18.007823 117.000000
18.027306 129.000000
18.046788 136.000000
18.066270 142.000000
18.085753 137.000000
18.105235 149.000000
18.124718 137.000000
18.144200 146.000000
18.163682 135.000000
18.183165 152.000000
18.202647 160.000000
18.222129 130.000000
18.241612 117.000000
18.261094 125.000000
18.280576 137.000000
18.300059 143.000000
18.319541 128.000000
18.339024 128.000000
18.358506 119.000000
18.377988 124.000000
18.397471 126.000000
18.416953 127.000000
18.436435 104.000000
18.455918 139.000000
18.475400 135.000000
18.494883 111.000000
18.514365 135.000000
18.533847 113.000000
18.553330 127.000000
18.572812 144.000000
18.592294 144.000000
18.611777 138.000000
18.631259 139.000000
18.650741 119.000000
18.670224 122.000000
18.689706 141.000000
18.709189 115.000000
18.728671 126.000000
18.748153 127.000000
18.767636 126.000000
18.787118 128.000000
18.806600 122.000000
18.826083 136.000000
18.845565 129.000000
18.865048 101.000000
18.884530 115.000000
18.904012 112.000000
18.923495 123.000000
18.942977 127.000000
18.962459 134.000000
18.981942 138.000000
19.001424 141.000000
19.020907 139.000000
19.040389 105.000000
19.059871 131.000000
19.079354 118.000000
19.098836 95.000000
19.118318 131.000000
19.137801 115.000000
19.157283 109.000000
19.176765 127.000000
19.196248 135.000000
19.215730 127.000000
19.235213 120.000000
19.254695 113.000000
19.274177 108.000000
19.293660 133.000000
19.313142 113.000000
19.332624 110.000000
19.352107 115.000000
19.371589 130.000000
19.391072 121.000000
19.410554 139.000000
19.430036 138.000000
19.449519 111.000000
19.469001 119.000000
19.488483 108.000000
19.507966 102.000000
19.527448 123.000000
19.546930 132.000000
19.566413 141.000000
19.585895 111.000000
19.605378 117.000000
19.624860 111.000000
19.644342 114.000000
19.663825 105.000000
19.683307 108.000000
19.702789 94.000000
19.722272 126.000000
19.741754 128.000000
19.761237 103.000000
19.780719 121.000000
19.800201 105.000000
19.819684 111.000000
19.839166 108.000000
19.858648 139.000000
19.878131 119.000000
19.897613 111.000000
19.917095 95.000000
19.936578 113.000000
19.956060 126.000000
19.975543 134.000000
19.995025 101.000000
20.014507 111.000000
20.033990 118.000000
20.053472 115.000000
20.072954 122.000000
20.092437 121.000000
20.111919 104.000000
20.131402 112.000000
20.150884 104.000000
20.170366 94.000000
20.189849 97.000000
20.209331 123.000000
20.228813 115.000000
20.248296 129.000000
20.267778 116.000000
20.287260 123.000000
20.306743 109.000000
20.326225 139.000000
20.345708 103.000000
20.365190 112.000000
20.384672 104.000000
20.404155 112.000000
20.423637 109.000000
20.443119 128.000000
20.462602 113.000000
20.482084 125.000000
20.501567 95.000000
20.521049 100.000000
20.540531 117.000000
20.560014 118.000000
20.579496 121.000000
20.598978 121.000000
20.618461 111.000000
20.637943 99.000000
20.657426 109.000000
20.676908 101.000000
20.696390 84.000000
20.715873 104.000000
20.735355 111.000000
20.754837 104.000000
20.774320 114.000000
20.793802 114.000000
20.813284 130.000000
20.832767 123.000000
20.852249 111.000000
20.871732 116.000000
20.891214 113.000000
20.910696 106.000000
20.930179 110.000000
20.949661 102.000000
20.969143 107.000000
20.988626 116.000000
21.008108 100.000000
21.027591 117.000000
21.047073 108.000000
21.066555 117.000000
21.086038 107.000000
21.105520 101.000000
21.125002 106.000000
21.144485 99.000000
21.163967 121.000000
21.183449 111.000000
21.202932 106.000000
21.222414 121.000000
21.241897 93.000000
21.261379 113.000000
21.280861 115.000000
21.300344 94.000000
21.319826 106.000000
21.339308 110.000000
21.358791 97.000000
21.378273 91.000000
21.397756 91.000000
21.417238 118.000000
21.436720 98.000000
21.456203 106.000000
21.475685 116.000000
21.495167 97.000000
21.514650 124.000000
21.534132 110.000000
21.553614 77.000000
21.573097 94.000000
21.592579 115.000000
21.612062 113.000000
21.631544 108.000000
21.651026 112.000000
21.670509 98.000000
21.689991 122.000000
21.709473 101.000000
21.728956 100.000000
21.748438 101.000000
21.767921 104.000000
21.787403 110.000000
21.806885 106.000000
21.826368 110.000000
21.845850 100.000000
21.865332 98.000000
21.884815 107.000000
21.904297 100.000000
21.923779 102.000000
21.943262 100.000000
21.962744 105.000000
21.982227 112.000000
22.001709 102.000000
22.021191 111.000000
22.040674 87.000000
22.060156 83.000000
22.079638 112.000000
22.099121 92.000000
22.118603 93.000000
22.138086 95.000000
22.157568 101.000000
22.177050 109.000000
22.196533 95.000000
22.216015 98.000000
22.235497 93.000000
22.254980 95.000000
22.274462 117.000000
22.293945 104.000000
22.313427 102.000000
22.332909 122.000000
22.352392 116.000000
22.371874 106.000000
22.391356 113.000000
22.410839 103.000000
22.430321 106.000000
22.449803 112.000000
22.469286 101.000000
22.488768 119.000000
22.508251 122.000000
22.527733 87.000000
22.547215 99.000000
22.566698 124.000000
22.586180 121.000000
22.605662 111.000000
22.625145 113.000000
22.644627 111.000000
22.664110 111.000000
22.683592 100.000000
22.703074 106.000000
22.722557 126.000000
22.742039 113.000000
22.761521 113.000000
22.781004 104.000000
22.800486 122.000000
22.819968 129.000000
22.839451 118.000000
22.858933 154.000000
22.878416 148.000000
22.897898 158.000000
22.917380 189.000000
22.936863 246.000000
22.956345 328.000000
22.975827 537.000000
22.995310 836.000000
23.014792 1237.000000
23.034275 1474.000000
23.053757 1423.000000
23.073239 1186.000000
23.092722 1048.000000
23.112204 753.000000
23.131686 492.000000
23.151169 313.000000
23.170651 214.000000
23.190133 177.000000
23.209616 156.000000
23.229098 158.000000
23.248581 157.000000
23.268063 115.000000
23.287545 137.000000
23.307028 109.000000
23.326510 121.000000
23.345992 103.000000
23.365475 110.000000
23.384957 94.000000
23.404440 115.000000
23.423922 107.000000
23.443404 95.000000
23.462887 103.000000
23.482369 90.000000
23.501851 86.000000
23.521334 111.000000
23.540816 105.000000
23.560298 92.000000
23.579781 98.000000
23.599263 123.000000
23.618746 87.000000
23.638228 133.000000
23.657710 123.000000
23.677193 112.000000
23.696675 91.000000
23.716157 91.000000
23.735640 109.000000
23.755122 113.000000
23.774605 90.000000
23.794087 109.000000
23.813569 106.000000
23.833052 96.000000
23.852534 112.000000
23.872016 106.000000
23.891499 99.000000
23.910981 87.000000
23.930463 83.000000
23.949946 95.000000
23.969428 98.000000
23.988911 97.000000
24.008393 113.000000
24.027875 77.000000
24.047358 98.000000
24.066840 101.000000
24.086322 113.000000
24.105805 102.000000
24.125287 101.000000
24.144770 99.000000
24.164252 88.000000
24.183734 95.000000
24.203217 99.000000
24.222699 91.000000
24.242181 92.000000
24.261664 94.000000
24.281146 91.000000
24.300629 83.000000
24.320111 107.000000
24.339593 109.000000
24.359076 98.000000
24.378558 95.000000
24.398040 92.000000
24.417523 98.000000
24.437005 89.000000
24.456487 102.000000
24.475970 98.000000
24.495452 95.000000
24.514935 86.000000
24.534417 82.000000
24.553899 99.000000
24.573382 88.000000
24.592864 82.000000
24.612346 99.000000
24.631829 83.000000
24.651311 113.000000
24.670794 112.000000
24.690276 103.000000
24.709758 94.000000
24.729241 111.000000
24.748723 108.000000
24.768205 105.000000
24.787688 94.000000
24.807170 84.000000
24.826652 91.000000
24.846135 112.000000
24.865617 104.000000
24.885100 97.000000
24.904582 104.000000
24.924064 109.000000
24.943547 71.000000
24.963029 89.000000
24.982511 90.000000
25.001994 103.000000
25.021476 104.000000
25.040959 88.000000
25.060441 90.000000
25.079923 84.000000
25.099406 93.000000
25.118888 82.000000
25.138370 103.000000
25.157853 87.000000
25.177335 106.000000
25.196817 88.000000
25.216300 103.000000
25.235782 94.000000
25.255265 76.000000
25.274747 94.000000
25.294229 99.000000
25.313712 105.000000
25.333194 92.000000
25.352676 84.000000
25.372159 79.000000
25.391641 84.000000
25.411124 109.000000
25.430606 84.000000
25.450088 92.000000
25.469571 101.000000
25.489053 100.000000
25.508535 90.000000
25.528018 98.000000
25.547500 102.000000
25.566982 99.000000
25.586465 86.000000
25.605947 96.000000
25.625430 82.000000
25.644912 117.000000
25.664394 87.000000
25.683877 101.000000
25.703359 105.000000
25.722841 78.000000
25.742324 83.000000
25.761806 93.000000
25.781289 95.000000
25.800771 108.000000
25.820253 90.000000
25.839736 92.000000
25.859218 89.000000
25.878700 101.000000
25.898183 95.000000
25.917665 74.000000
25.937148 84.000000
25.956630 71.000000
25.976112 95.000000
25.995595 97.000000
26.015077 76.000000
26.034559 97.000000
26.054042 99.000000
26.073524 95.000000
26.093006 101.000000
26.112489 87.000000
26.131971 79.000000
26.151454 92.000000
26.170936 95.000000
26.190418 68.000000
26.209901 90.000000
26.229383 77.000000
26.248865 93.000000
26.268348 110.000000
26.287830 85.000000
26.307313 93.000000
26.326795 112.000000
26.346277 95.000000
26.365760 109.000000
26.385242 100.000000
26.404724 83.000000
26.424207 108.000000
26.443689 125.000000
26.463171 119.000000
26.482654 147.000000
26.502136 184.000000
26.521619 168.000000
26.541101 139.000000
26.560583 124.000000
26.580066 117.000000
26.599548 137.000000
26.619030 116.000000
26.638513 128.000000
26.657995 138.000000
26.677478 166.000000
26.696960 150.000000
26.716442 125.000000
26.735925 116.000000
26.755407 115.000000
26.774889 119.000000
26.794372 102.000000
26.813854 84.000000
26.833336 92.000000
26.852819 98.000000
26.872301 90.000000
26.891784 93.000000
26.911266 94.000000
26.930748 90.000000
26.950231 73.000000
26.969713 98.000000
26.989195 83.000000
27.008678 92.000000
27.028160 89.000000
27.047643 65.000000
27.067125 91.000000
27.086607 100.000000
27.106090 83.000000
27.125572 85.000000
27.145054 102.000000
27.164537 88.000000
27.184019 92.000000
27.203501 73.000000
27.222984 73.000000
27.242466 92.000000
27.261949 89.000000
27.281431 86.000000
27.300913 103.000000
27.320396 91.000000
27.339878 86.000000
27.359360 95.000000
27.378843 69.000000
27.398325 80.000000
27.417808 83.000000
27.437290 89.000000
27.456772 69.000000
27.476255 89.000000
27.495737 97.000000
27.515219 89.000000
27.534702 111.000000
27.554184 87.000000
27.573667 96.000000
27.593149 90.000000
27.612631 98.000000
27.632114 94.000000
27.651596 84.000000
27.671078 82.000000
27.690561 90.000000
27.710043 82.000000
27.729525 87.000000
27.749008 85.000000
27.768490 86.000000
27.787973 87.000000
27.807455 79.000000
27.826937 62.000000
27.846420 100.000000
27.865902 85.000000
27.885384 90.000000
27.904867 84.000000
27.924349 93.000000
27.943832 81.000000
27.963314 85.000000
27.982796 90.000000
28.002279 81.000000
28.021761 102.000000
28.041243 78.000000
28.060726 90.000000
28.080208 80.000000
28.099690 83.000000
28.119173 76.000000
28.138655 75.000000
28.158138 71.000000
28.177620 85.000000
28.197102 77.000000
28.216585 101.000000
28.236067 91.000000
28.255549 74.000000
28.275032 92.000000
28.294514 99.000000
28.313997 101.000000
28.333479 109.000000
28.352961 129.000000
28.372444 137.000000
28.391926 138.000000
28.411408 146.000000
28.430891 174.000000
28.450373 160.000000
28.469855 152.000000
28.489338 158.000000
28.508820 156.000000
28.528303 160.000000
28.547785 132.000000
28.567267 162.000000
28.586750 148.000000
28.606232 149.000000
28.625714 164.000000
28.645197 162.000000
28.664679 175.000000
28.684162 161.000000
28.703644 165.000000
28.723126 159.000000
28.742609 184.000000
28.762091 196.000000
28.781573 173.000000
28.801056 159.000000
28.820538 188.000000
28.840020 189.000000
28.859503 177.000000
28.878985 189.000000
28.898468 193.000000
28.917950 189.000000
28.937432 180.000000
28.956915 203.000000
28.976397 228.000000
28.995879 233.000000
29.015362 269.000000
29.034844 249.000000
29.054327 258.000000
29.073809 267.000000
29.093291 313.000000
29.112774 330.000000
29.132256 388.000000
29.151738 430.000000
29.171221 476.000000
29.190703 603.000000
29.210185 689.000000
29.229668 875.000000
29.249150 1142.000000
29.268633 1500.000000
29.288115 2227.000000
29.307597 3626.000000
29.327080 6706.000000
29.346562 12404.000000
29.366044 20300.000000
29.385527 25523.000000
29.405009 23087.000000
29.424492 17350.000000
29.443974 14729.000000
29.463456 14210.000000
29.482939 10465.000000
29.502421 5834.000000
29.521903 2948.000000
29.541386 1728.000000
29.560868 1113.000000
29.580351 853.000000
29.599833 714.000000
29.619315 593.000000
29.638798 544.000000
29.658280 455.000000
29.677762 387.000000
29.697245 346.000000
29.716727 350.000000
29.736209 286.000000
29.755692 300.000000
29.775174 248.000000
29.794657 250.000000
29.814139 237.000000
29.833621 229.000000
29.853104 211.000000
29.872586 199.000000
29.892068 211.000000
29.911551 213.000000
29.931033 183.000000
29.950516 168.000000
29.969998 175.000000
29.989480 181.000000
30.008963 142.000000
30.028445 164.000000
30.047927 139.000000
30.067410 171.000000
30.086892 132.000000
30.106374 166.000000
30.125857 132.000000
30.145339 141.000000
30.164822 152.000000
30.184304 122.000000
30.203786 145.000000
30.223269 115.000000
30.242751 133.000000
30.262233 140.000000
30.281716 135.000000
30.301198 135.000000
30.320681 120.000000
30.340163 121.000000
30.359645 127.000000
30.379128 142.000000
30.398610 125.000000
30.418092 134.000000
30.437575 135.000000
30.457057 133.000000
30.476539 111.000000
30.496022 123.000000
30.515504 130.000000
30.534987 123.000000
30.554469 100.000000
30.573951 138.000000
30.593434 113.000000
30.612916 125.000000
30.632398 102.000000
30.651881 121.000000
30.671363 110.000000
30.690846 120.000000
30.710328 119.000000
30.729810 119.000000
30.749293 108.000000
30.768775 110.000000
30.788257 109.000000
30.807740 129.000000
30.827222 124.000000
30.846704 115.000000
30.866187 107.000000
30.885669 105.000000
30.905152 105.000000
30.924634 114.000000
30.944116 127.000000
30.963599 106.000000
30.983081 103.000000
31.002563 125.000000
31.022046 102.000000
31.041528 103.000000
31.061011 104.000000
31.080493 89.000000
31.099975 91.000000
31.119458 117.000000
31.138940 111.000000
31.158422 114.000000
31.177905 127.000000
31.197387 108.000000
31.216870 114.000000
31.236352 123.000000
31.255834 114.000000
31.275317 133.000000
31.294799 152.000000
31.314281 135.000000
31.333764 179.000000
31.353246 237.000000
31.372728 303.000000
31.392211 414.000000
31.411693 491.000000
31.431176 547.000000
31.450658 405.000000
31.470140 368.000000
31.489623 342.000000
31.509105 340.000000
31.528587 255.000000
31.548070 205.000000
31.567552 155.000000
31.587035 134.000000
31.606517 126.000000
31.625999 118.000000
31.645482 107.000000
31.664964 113.000000
31.684446 92.000000
31.703929 96.000000
31.723411 107.000000
31.742893 99.000000
31.762376 110.000000
31.781858 103.000000
31.801341 103.000000
31.820823 105.000000
31.840305 85.000000
31.859788 105.000000
31.879270 101.000000
31.898752 95.000000
31.918235 98.000000
31.937717 88.000000
31.957200 91.000000
31.976682 106.000000
31.996164 105.000000
32.015647 101.000000
32.035129 96.000000
32.054611 94.000000
32.074094 96.000000
32.093576 86.000000
32.113058 92.000000
32.132541 92.000000
32.152023 98.000000
32.171506 100.000000
32.190988 113.000000
32.210470 96.000000
32.229953 95.000000
32.249435 81.000000
32.268917 85.000000
32.288400 95.000000
32.307882 100.000000
32.327365 94.000000
32.346847 90.000000
32.366329 98.000000
32.385812 78.000000
32.405294 79.000000
32.424776 91.000000
32.444259 111.000000
32.463741 96.000000
32.483223 88.000000
32.502706 107.000000
32.522188 75.000000
32.541671 91.000000
32.561153 91.000000
32.580635 93.000000
32.600118 104.000000
32.619600 84.000000
32.639082 85.000000
32.658565 82.000000
32.678047 105.000000
32.697530 86.000000
32.717012 85.000000
32.736494 85.000000
32.755977 84.000000
32.775459 90.000000
32.794941 90.000000
32.814424 65.000000
32.833906 85.000000
32.853389 82.000000
32.872871 73.000000
32.892353 82.000000
32.911836 83.000000
32.931318 82.000000
32.950800 100.000000
32.970283 89.000000
32.989765 96.000000
33.009247 90.000000
33.028730 90.000000
33.048212 83.000000
33.067695 94.000000
33.087177 96.000000
33.106659 78.000000
33.126142 85.000000
33.145624 95.000000
33.165106 88.000000
33.184589 84.000000
33.204071 84.000000
33.223554 68.000000
33.243036 86.000000
33.262518 73.000000
33.282001 104.000000
33.301483 84.000000
33.320965 87.000000
33.340448 84.000000
33.359930 81.000000
33.379412 69.000000
33.398895 97.000000
33.418377 85.000000
33.437860 74.000000
33.457342 98.000000
33.476824 81.000000
33.496307 89.000000
33.515789 78.000000
33.535271 70.000000
33.554754 88.000000
33.574236 93.000000
33.593719 79.000000
33.613201 83.000000
33.632683 84.000000
33.652166 106.000000
33.671648 90.000000
33.691130 71.000000
33.710613 86.000000
33.730095 92.000000
33.749577 79.000000
33.769060 93.000000
33.788542 83.000000
33.808025 99.000000
33.827507 77.000000
33.846989 82.000000
33.866472 82.000000
33.885954 87.000000
33.905436 78.000000
33.924919 92.000000
33.944401 82.000000
33.963884 96.000000
33.983366 87.000000
34.002848 68.000000
34.022331 86.000000
34.041813 80.000000
34.061295 73.000000
34.080778 89.000000
34.100260 71.000000
34.119742 82.000000
34.139225 81.000000
34.158707 90.000000
34.178190 92.000000
34.197672 87.000000
34.217154 79.000000
34.236637 78.000000
34.256119 79.000000
34.275601 70.000000
34.295084 95.000000
34.314566 88.000000
34.334049 85.000000
34.353531 86.000000
34.373013 78.000000
34.392496 81.000000
34.411978 98.000000
34.431460 93.000000
34.450943 90.000000
34.470425 69.000000
34.489908 72.000000
34.509390 91.000000
34.528872 74.000000
34.548355 64.000000
34.567837 63.000000
34.587319 82.000000
34.606802 69.000000
34.626284 73.000000
34.645766 72.000000
34.665249 86.000000
34.684731 93.000000
34.704214 62.000000
34.723696 76.000000
34.743178 82.000000
34.762661 69.000000
34.782143 77.000000
34.801625 94.000000
34.821108 78.000000
34.840590 80.000000
34.860073 94.000000
34.879555 80.000000
34.899037 91.000000
34.918520 83.000000
34.938002 60.000000
34.957484 91.000000
34.976967 81.000000
34.996449 78.000000
35.015931 94.000000
35.035414 85.000000
35.054896 93.000000
35.074379 81.000000
35.093861 88.000000
35.113343 86.000000
35.132826 90.000000
35.152308 79.000000
35.171790 69.000000
35.191273 82.000000
35.210755 81.000000
35.230238 88.000000
35.249720 81.000000
35.269202 72.000000
35.288685 67.000000
35.308167 97.000000
35.327649 83.000000
35.347132 72.000000
35.366614 78.000000
35.386096 69.000000
35.405579 70.000000
35.425061 83.000000
35.444544 99.000000
35.464026 98.000000
35.483508 93.000000
35.502991 94.000000
35.522473 98.000000
35.541955 98.000000
35.561438 81.000000
35.580920 81.000000
35.600403 85.000000
35.619885 99.000000
35.639367 93.000000
35.658850 97.000000
35.678332 80.000000
35.697814 109.000000
35.717297 113.000000
35.736779 127.000000
35.756261 125.000000
35.775744 123.000000
35.795226 124.000000
35.814709 160.000000
35.834191 207.000000
35.853673 260.000000
35.873156 321.000000
35.892638 579.000000
35.912120 861.000000
35.931603 1203.000000
35.951085 1516.000000
35.970568 1445.000000
35.990050 1121.000000
36.009532 992.000000
36.029015 884.000000
36.048497 843.000000
36.067979 695.000000
36.087462 476.000000
36.106944 321.000000
36.126426 256.000000
36.145909 187.000000
36.165391 152.000000
36.184874 114.000000
36.204356 122.000000
36.223838 129.000000
36.243321 102.000000
36.262803 94.000000
36.282285 80.000000
36.301768 77.000000
36.321250 93.000000
36.340733 90.000000
36.360215 91.000000
36.379697 82.000000
36.399180 71.000000
36.418662 78.000000
36.438144 71.000000
36.457627 89.000000
36.477109 85.000000
36.496592 81.000000
36.516074 82.000000
36.535556 87.000000
36.555039 89.000000
36.574521 99.000000
36.594003 76.000000
36.613486 84.000000
36.632968 75.000000
36.652450 70.000000
36.671933 83.000000
36.691415 78.000000
36.710898 88.000000
36.730380 71.000000
36.749862 86.000000
36.769345 72.000000
36.788827 84.000000
36.808309 82.000000
36.827792 77.000000
36.847274 81.000000
36.866757 69.000000
36.886239 81.000000
36.905721 86.000000
36.925204 78.000000
36.944686 58.000000
36.964168 81.000000
36.983651 77.000000
37.003133 74.000000
37.022615 79.000000
37.042098 98.000000
37.061580 90.000000
37.081063 76.000000
37.100545 79.000000
37.120027 65.000000
37.139510 75.000000
37.158992 65.000000
37.178474 88.000000
37.197957 59.000000
37.217439 65.000000
37.236922 87.000000
37.256404 81.000000
37.275886 77.000000
37.295369 63.000000
37.314851 54.000000
37.334333 65.000000
37.353816 63.000000
37.373298 86.000000
37.392780 78.000000
37.412263 86.000000
37.431745 67.000000
37.451228 78.000000
37.470710 66.000000
37.490192 75.000000
37.509675 66.000000
37.529157 68.000000
37.548639 59.000000
37.568122 88.000000
37.587604 67.000000
37.607087 91.000000
37.626569 88.000000
37.646051 84.000000
37.665534 69.000000
37.685016 79.000000
37.704498 85.000000
37.723981 68.000000
37.743463 74.000000
37.762945 84.000000
37.782428 72.000000
37.801910 71.000000
37.821393 55.000000
37.840875 61.000000
37.860357 74.000000
37.879840 73.000000
37.899322 60.000000
37.918804 82.000000
37.938287 66.000000
37.957769 83.000000
37.977252 89.000000
37.996734 82.000000
38.016216 90.000000
38.035699 76.000000
38.055181 85.000000
38.074663 83.000000
38.094146 73.000000
38.113628 84.000000
38.133111 72.000000
38.152593 69.000000
38.172075 72.000000
38.191558 76.000000
38.211040 84.000000
38.230522 85.000000
38.250005 72.000000
38.269487 70.000000
38.288969 76.000000
38.308452 91.000000
38.327934 77.000000
38.347417 73.000000
38.366899 58.000000
38.386381 69.000000
38.405864 80.000000
38.425346 94.000000
38.444828 77.000000
38.464311 68.000000
38.483793 70.000000
38.503276 77.000000
38.522758 75.000000
38.542240 82.000000
38.561723 66.000000
38.581205 92.000000
38.600687 90.000000
38.620170 80.000000
38.639652 66.000000
38.659134 79.000000
38.678617 87.000000
38.698099 70.000000
38.717582 70.000000
38.737064 80.000000
38.756546 77.000000
38.776029 87.000000
38.795511 100.000000
38.814993 79.000000
38.834476 95.000000
38.853958 84.000000
38.873441 86.000000
38.892923 87.000000
38.912405 87.000000
38.931888 68.000000
38.951370 81.000000
38.970852 80.000000
38.990335 77.000000
39.009817 103.000000
39.029299 102.000000
39.048782 95.000000
39.068264 106.000000
39.087747 106.000000
39.107229 123.000000
39.126711 124.000000
39.146194 144.000000
39.165676 154.000000
39.185158 160.000000
39.204641 189.000000
39.224123 186.000000
39.243606 260.000000
39.263088 262.000000
39.282570 370.000000
39.302053 494.000000
39.321535 762.000000
39.341017 1188.000000
39.360500 1865.000000
39.379982 2423.000000
39.399464 2714.000000
39.418947 2311.000000
39.438429 1845.000000
39.457912 1621.000000
39.477394 1655.000000
39.496876 1615.000000
39.516359 1324.000000
39.535841 965.000000
39.555323 659.000000
39.574806 456.000000
39.594288 308.000000
39.613771 243.000000
39.633253 199.000000
39.652735 177.000000
39.672218 137.000000
39.691700 136.000000
39.711182 135.000000
39.730665 125.000000
39.750147 91.000000
39.769630 118.000000
39.789112 120.000000
39.808594 117.000000
39.828077 94.000000
39.847559 101.000000
39.867041 84.000000
39.886524 99.000000
39.906006 95.000000
39.925488 89.000000
39.944971 76.000000
39.964453 81.000000
39.983936 80.000000
40.003418 87.000000
40.022900 86.000000
40.042383 71.000000
40.061865 79.000000
40.081347 78.000000
40.100830 79.000000
40.120312 80.000000
40.139795 76.000000
40.159277 80.000000
40.178759 87.000000
40.198242 76.000000
40.217724 91.000000
40.237206 61.000000
40.256689 69.000000
40.276171 67.000000
40.295653 57.000000
40.315136 81.000000
40.334618 67.000000
40.354101 96.000000
40.373583 73.000000
40.393065 66.000000
40.412548 80.000000
40.432030 78.000000
40.451512 76.000000
40.470995 63.000000
40.490477 62.000000
40.509960 76.000000
40.529442 53.000000
40.548924 73.000000
40.568407 80.000000
40.587889 69.000000
40.607371 65.000000
40.626854 69.000000
40.646336 77.000000
40.665818 69.000000
40.685301 62.000000
40.704783 79.000000
40.724266 73.000000
40.743748 74.000000
40.763230 76.000000
40.782713 56.000000
40.802195 58.000000
40.821677 62.000000
40.841160 66.000000
40.860642 69.000000
40.880125 80.000000
40.899607 74.000000
40.919089 63.000000
40.938572 70.000000
40.958054 66.000000
40.977536 64.000000
40.997019 72.000000
41.016501 67.000000
41.035983 78.000000
41.055466 69.000000
41.074948 76.000000
41.094431 82.000000
41.113913 65.000000
41.133395 85.000000
41.152878 88.000000
41.172360 53.000000
41.191842 79.000000
41.211325 69.000000
41.230807 70.000000
41.250290 54.000000
41.269772 73.000000
41.289254 85.000000
41.308737 69.000000
41.328219 51.000000
41.347701 68.000000
41.367184 65.000000
41.386666 81.000000
41.406149 71.000000
41.425631 81.000000
41.445113 62.000000
41.464596 76.000000
41.484078 75.000000
41.503560 75.000000
41.523043 63.000000
41.542525 79.000000
41.562007 67.000000
41.581490 66.000000
41.600972 61.000000
41.620455 63.000000
41.639937 77.000000
41.659419 69.000000
41.678902 70.000000
41.698384 70.000000
41.717866 93.000000
41.737349 67.000000
41.756831 89.000000
41.776314 84.000000
41.795796 90.000000
41.815278 76.000000
41.834761 75.000000
41.854243 85.000000
41.873725 73.000000
41.893208 70.000000
41.912690 78.000000
41.932172 75.000000
41.951655 91.000000
41.971137 70.000000
41.990620 76.000000
42.010102 77.000000
42.029584 81.000000
42.049067 72.000000
42.068549 80.000000
42.088031 85.000000
42.107514 85.000000
42.126996 76.000000
42.146479 66.000000
42.165961 62.000000
42.185443 72.000000
42.204926 67.000000
42.224408 77.000000
42.243890 61.000000
42.263373 73.000000
42.282855 90.000000
42.302337 70.000000
42.321820 86.000000
42.341302 81.000000
42.360785 68.000000
42.380267 77.000000
42.399749 75.000000
42.419232 82.000000
42.438714 72.000000
42.458196 72.000000
42.477679 84.000000
42.497161 63.000000
42.516644 84.000000
42.536126 75.000000
42.555608 90.000000
42.575091 73.000000
42.594573 83.000000
42.614055 110.000000
42.633538 93.000000
42.653020 105.000000
42.672502 89.000000
42.691985 97.000000
42.711467 89.000000
42.730950 95.000000
42.750432 95.000000
42.769914 77.000000
42.789397 68.000000
42.808879 110.000000
42.828361 76.000000
42.847844 110.000000
42.867326 119.000000
42.886809 114.000000
42.906291 113.000000
42.925773 129.000000
42.945256 142.000000
42.964738 168.000000
42.984220 158.000000
43.003703 181.000000
43.023185 217.000000
43.042667 284.000000
43.062150 476.000000
43.081632 659.000000
43.101115 1181.000000
43.120597 1656.000000
43.140079 2051.000000
43.159562 2096.000000
43.179044 1577.000000
43.198526 1227.000000
43.218009 1082.000000
43.237491 1225.000000
43.256974 1191.000000
43.276456 1075.000000
43.295938 791.000000
43.315421 529.000000
43.334903 364.000000
43.354385 255.000000
43.373868 198.000000
43.393350 145.000000
43.412833 151.000000
43.432315 128.000000
43.451797 114.000000
43.471280 101.000000
43.490762 117.000000
43.510244 105.000000
43.529727 112.000000
43.549209 107.000000
43.568691 86.000000
43.588174 109.000000
43.607656 93.000000
43.627139 86.000000
43.646621 93.000000
43.666103 92.000000
43.685586 93.000000
43.705068 75.000000
43.724550 84.000000
43.744033 65.000000
43.763515 85.000000
43.782998 95.000000
43.802480 75.000000
43.821962 70.000000
43.841445 79.000000
43.860927 86.000000
43.880409 78.000000
43.899892 80.000000
43.919374 57.000000
43.938856 70.000000
43.958339 61.000000
43.977821 75.000000
43.997304 71.000000
44.016786 66.000000
44.036268 72.000000
44.055751 71.000000
44.075233 65.000000
44.094715 73.000000
44.114198 75.000000
44.133680 70.000000
44.153163 55.000000
44.172645 71.000000
44.192127 61.000000
44.211610 86.000000
44.231092 70.000000
44.250574 64.000000
44.270057 66.000000
44.289539 74.000000
44.309021 84.000000
44.328504 73.000000
44.347986 83.000000
44.367469 82.000000
44.386951 74.000000
44.406433 81.000000
44.425916 68.000000
44.445398 61.000000
44.464880 96.000000
44.484363 72.000000
44.503845 64.000000
44.523328 72.000000
44.542810 92.000000
44.562292 90.000000
44.581775 78.000000
44.601257 81.000000
44.620739 65.000000
44.640222 79.000000
44.659704 78.000000
44.679186 74.000000
44.698669 74.000000
44.718151 63.000000
44.737634 64.000000
44.757116 75.000000
44.776598 77.000000
44.796081 67.000000
44.815563 75.000000
44.835045 71.000000
44.854528 77.000000
44.874010 61.000000
44.893493 62.000000
44.912975 72.000000
44.932457 83.000000
44.951940 58.000000
44.971422 45.000000
44.990904 67.000000
45.010387 68.000000
45.029869 56.000000
45.049352 59.000000
45.068834 75.000000
45.088316 77.000000
45.107799 64.000000
45.127281 76.000000
45.146763 87.000000
45.166246 73.000000
45.185728 58.000000
45.205210 60.000000
45.224693 68.000000
45.244175 72.000000
45.263658 74.000000
45.283140 82.000000
45.302622 57.000000
45.322105 63.000000
45.341587 74.000000
45.361069 74.000000
45.380552 48.000000
45.400034 84.000000
45.419517 61.000000
45.438999 68.000000
45.458481 78.000000
45.477964 84.000000
45.497446 79.000000
45.516928 65.000000
45.536411 75.000000
45.555893 72.000000
45.575375 67.000000
45.594858 58.000000
45.614340 71.000000
45.633823 68.000000
45.653305 69.000000
45.672787 71.000000
45.692270 71.000000
45.711752 70.000000
45.731234 82.000000
45.750717 66.000000
45.770199 61.000000
45.789682 83.000000
45.809164 93.000000
45.828646 80.000000
45.848129 76.000000
45.867611 78.000000
45.887093 87.000000
45.906576 77.000000
45.926058 80.000000
45.945540 77.000000
45.965023 79.000000
45.984505 74.000000
46.003988 80.000000
46.023470 83.000000
46.042952 83.000000
46.062435 76.000000
46.081917 83.000000
46.101399 98.000000
46.120882 83.000000
46.140364 81.000000
46.159847 85.000000
46.179329 82.000000
46.198811 100.000000
46.218294 68.000000
46.237776 79.000000
46.257258 79.000000
46.276741 70.000000
46.296223 87.000000
46.315705 78.000000
46.335188 91.000000
46.354670 89.000000
46.374153 70.000000
46.393635 65.000000
46.413117 87.000000
46.432600 91.000000
46.452082 92.000000
46.471564 76.000000
46.491047 93.000000
46.510529 84.000000
46.530012 88.000000
46.549494 80.000000
46.568976 99.000000
46.588459 87.000000
46.607941 82.000000
46.627423 94.000000
46.646906 70.000000
46.666388 89.000000
46.685871 79.000000
46.705353 87.000000
46.724835 108.000000
46.744318 103.000000
46.763800 118.000000
46.783282 87.000000
46.802765 96.000000
46.822247 110.000000
46.841729 109.000000
46.861212 129.000000
46.880694 122.000000
46.900177 134.000000
46.919659 125.000000
46.939141 149.000000
46.958624 157.000000
46.978106 180.000000
46.997588 210.000000
47.017071 266.000000
47.036553 319.000000
47.056036 353.000000
47.075518 518.000000
47.095000 586.000000
47.114483 581.000000
47.133965 539.000000
47.153447 461.000000
47.172930 454.000000
47.192412 473.000000
47.211894 498.000000
47.231377 464.000000
47.250859 421.000000
47.270342 385.000000
47.289824 367.000000
47.309306 393.000000
47.328789 398.000000
47.348271 453.000000
47.367753 504.000000
47.387236 602.000000
47.406718 905.000000
47.426201 1267.000000
47.445683 1838.000000
47.465165 2455.000000
47.484648 2893.000000
47.504130 2853.000000
47.523612 2681.000000
47.543095 2202.000000
47.562577 1837.000000
47.582059 1754.000000
47.601542 1800.000000
47.621024 1845.000000
47.640507 1603.000000
47.659989 1275.000000
47.679471 954.000000
47.698954 628.000000
47.718436 514.000000
47.737918 360.000000
47.757401 302.000000
47.776883 250.000000
47.796366 243.000000
47.815848 204.000000
47.835330 199.000000
47.854813 179.000000
47.874295 165.000000
47.893777 152.000000
47.913260 147.000000
47.932742 127.000000
47.952224 135.000000
47.971707 124.000000
47.991189 127.000000
48.010672 141.000000
48.030154 124.000000
48.049636 142.000000
48.069119 137.000000
48.088601 114.000000
48.108083 133.000000
48.127566 127.000000
48.147048 137.000000
48.166531 119.000000
48.186013 167.000000
48.205495 170.000000
48.224978 148.000000
48.244460 154.000000
48.263942 194.000000
48.283425 200.000000
48.302907 231.000000
48.322389 267.000000
48.341872 306.000000
48.361354 403.000000
48.380837 510.000000
48.400319 728.000000
48.419801 1059.000000
48.439284 1356.000000
48.458766 1904.000000
48.478248 2321.000000
48.497731 2613.000000
48.517213 2393.000000
48.536696 2027.000000
48.556178 1657.000000
48.575660 1478.000000
48.595143 1456.000000
48.614625 1552.000000
48.634107 1435.000000
48.653590 1214.000000
48.673072 895.000000
48.692555 637.000000
48.712037 445.000000
48.731519 364.000000
48.751002 264.000000
48.770484 243.000000
48.789966 220.000000
48.809449 166.000000
48.828931 176.000000
48.848413 153.000000
48.867896 148.000000
48.887378 121.000000
48.906861 118.000000
48.926343 114.000000
48.945825 119.000000
48.965308 119.000000
48.984790 117.000000
49.004272 95.000000
49.023755 105.000000
49.043237 103.000000
49.062720 96.000000
49.082202 98.000000
49.101684 106.000000
49.121167 81.000000
49.140649 91.000000
49.160131 93.000000
49.179614 94.000000
49.199096 88.000000
49.218578 89.000000
49.238061 89.000000
49.257543 89.000000
49.277026 72.000000
49.296508 89.000000
49.315990 70.000000
49.335473 76.000000
49.354955 82.000000
49.374437 65.000000
49.393920 80.000000
49.413402 73.000000
49.432885 71.000000
49.452367 73.000000
49.471849 80.000000
49.491332 76.000000
49.510814 72.000000
49.530296 75.000000
49.549779 70.000000
49.569261 86.000000
49.588743 68.000000
49.608226 79.000000
49.627708 74.000000
49.647191 77.000000
49.666673 77.000000
49.686155 69.000000
49.705638 72.000000
49.725120 67.000000
49.744602 68.000000
49.764085 78.000000
49.783567 67.000000
49.803050 77.000000
49.822532 87.000000
49.842014 73.000000
49.861497 69.000000
49.880979 67.000000
49.900461 57.000000
49.919944 69.000000
49.939426 59.000000
49.958908 65.000000
49.978391 78.000000
49.997873 71.000000
50.017356 68.000000
50.036838 67.000000
50.056320 67.000000
50.075803 51.000000
50.095285 69.000000
50.114767 67.000000
50.134250 80.000000
50.153732 78.000000
50.173215 81.000000
50.192697 66.000000
50.212179 71.000000
50.231662 76.000000
50.251144 80.000000
50.270626 78.000000
50.290109 69.000000
50.309591 81.000000
50.329074 65.000000
50.348556 57.000000
50.368038 69.000000
50.387521 65.000000
50.407003 49.000000
50.426485 59.000000
50.445968 68.000000
50.465450 82.000000
50.484932 74.000000
50.504415 75.000000
50.523897 64.000000
50.543380 66.000000
50.562862 80.000000
50.582344 69.000000
50.601827 53.000000
50.621309 80.000000
50.640791 59.000000
50.660274 59.000000
50.679756 69.000000
50.699239 64.000000
50.718721 66.000000
50.738203 62.000000
50.757686 69.000000
50.777168 61.000000
50.796650 80.000000
50.816133 70.000000
50.835615 61.000000
50.855097 66.000000
50.874580 55.000000
50.894062 54.000000
50.913545 69.000000
50.933027 67.000000
50.952509 60.000000
50.971992 55.000000
50.991474 61.000000
51.010956 63.000000
51.030439 59.000000
51.049921 67.000000
51.069404 60.000000
51.088886 57.000000
51.108368 56.000000
51.127851 68.000000
51.147333 50.000000
51.166815 66.000000
51.186298 54.000000
51.205780 65.000000
51.225262 65.000000
51.244745 47.000000
51.264227 55.000000
51.283710 65.000000
51.303192 69.000000
51.322674 64.000000
51.342157 69.000000
51.361639 64.000000
51.381121 65.000000
51.400604 55.000000
51.420086 61.000000
51.439569 59.000000
51.459051 86.000000
51.478533 68.000000
51.498016 48.000000
51.517498 78.000000
51.536980 75.000000
51.556463 58.000000
51.575945 65.000000
51.595427 55.000000
51.614910 64.000000
51.634392 47.000000
51.653875 75.000000
51.673357 55.000000
51.692839 77.000000
51.712322 63.000000
51.731804 84.000000
51.751286 52.000000
51.770769 51.000000
51.790251 68.000000
51.809734 54.000000
51.829216 74.000000
51.848698 44.000000
51.868181 65.000000
51.887663 63.000000
51.907145 54.000000
51.926628 74.000000
51.946110 76.000000
51.965593 66.000000
51.985075 68.000000
52.004557 52.000000
52.024040 69.000000
52.043522 63.000000
52.063004 55.000000
52.082487 71.000000
52.101969 52.000000
52.121451 73.000000
52.140934 65.000000
52.160416 67.000000
52.179899 59.000000
52.199381 65.000000
52.218863 57.000000
52.238346 54.000000
52.257828 61.000000
52.277310 60.000000
52.296793 56.000000
52.316275 68.000000
52.335758 81.000000
52.355240 58.000000
52.374722 69.000000
52.394205 70.000000
52.413687 52.000000
52.433169 48.000000
52.452652 68.000000
52.472134 52.000000
52.491616 55.000000
52.511099 66.000000
52.530581 62.000000
52.550064 51.000000
52.569546 59.000000
52.589028 72.000000
52.608511 74.000000
52.627993 47.000000
52.647475 66.000000
52.666958 63.000000
52.686440 58.000000
52.705923 55.000000
52.725405 56.000000
52.744887 72.000000
52.764370 69.000000
52.783852 66.000000
52.803334 53.000000
52.822817 55.000000
52.842299 58.000000
52.861781 64.000000
52.881264 73.000000
52.900746 50.000000
52.920229 58.000000
52.939711 63.000000
52.959193 64.000000
52.978676 56.000000
52.998158 57.000000
53.017640 67.000000
53.037123 56.000000
53.056605 52.000000
53.076088 64.000000
53.095570 44.000000
53.115052 54.000000
53.134535 63.000000
53.154017 60.000000
53.173499 63.000000
53.192982 60.000000
53.212464 72.000000
53.231946 65.000000
53.251429 55.000000
53.270911 53.000000
53.290394 62.000000
53.309876 71.000000
53.329358 50.000000
53.348841 56.000000
53.368323 65.000000
53.387805 64.000000
53.407288 54.000000
53.426770 48.000000
53.446253 54.000000
53.465735 43.000000
53.485217 47.000000
53.504700 56.000000
53.524182 61.000000
53.543664 53.000000
53.563147 66.000000
53.582629 63.000000
53.602112 61.000000
53.621594 55.000000
53.641076 58.000000
53.660559 56.000000
53.680041 65.000000
53.699523 55.000000
53.719006 73.000000
53.738488 63.000000
53.757970 48.000000
53.777453 55.000000
53.796935 73.000000
53.816418 51.000000
53.835900 55.000000
53.855382 57.000000
53.874865 52.000000
53.894347 62.000000
53.913829 52.000000
53.933312 50.000000
53.952794 60.000000
53.972277 65.000000
53.991759 51.000000
54.011241 68.000000
54.030724 60.000000
54.050206 59.000000
54.069688 76.000000
54.089171 71.000000
54.108653 55.000000
54.128135 53.000000
54.147618 57.000000
54.167100 69.000000
54.186583 60.000000
54.206065 56.000000
54.225547 51.000000
54.245030 62.000000
54.264512 67.000000
54.283994 52.000000
54.303477 58.000000
54.322959 66.000000
54.342442 68.000000
54.361924 52.000000
54.381406 63.000000
54.400889 49.000000
54.420371 61.000000
54.439853 64.000000
54.459336 66.000000
54.478818 54.000000
54.498300 60.000000
54.517783 42.000000
54.537265 39.000000
54.556748 54.000000
54.576230 65.000000
54.595712 42.000000
54.615195 54.000000
54.634677 59.000000
54.654159 53.000000
54.673642 60.000000
54.693124 46.000000
54.712607 64.000000
54.732089 43.000000
54.751571 52.000000
54.771054 47.000000
54.790536 46.000000
54.810018 58.000000
54.829501 61.000000
54.848983 66.000000
54.868465 53.000000
54.887948 53.000000
54.907430 58.000000
54.926913 53.000000
54.946395 60.000000
54.965877 70.000000
54.985360 55.000000
55.004842 52.000000
55.024324 54.000000
55.043807 44.000000
55.063289 59.000000
55.082772 51.000000
55.102254 56.000000
55.121736 65.000000
55.141219 60.000000
55.160701 60.000000
55.180183 56.000000
55.199666 63.000000
55.219148 55.000000
55.238630 54.000000
55.258113 58.000000
55.277595 60.000000
55.297078 50.000000
55.316560 68.000000
55.336042 58.000000
55.355525 56.000000
55.375007 56.000000
55.394489 55.000000
55.413972 44.000000
55.433454 49.000000
55.452937 52.000000
55.472419 59.000000
55.491901 65.000000
55.511384 67.000000
55.530866 44.000000
55.550348 57.000000
55.569831 52.000000
55.589313 69.000000
55.608796 68.000000
55.628278 54.000000
55.647760 58.000000
55.667243 54.000000
55.686725 72.000000
55.706207 56.000000
55.725690 63.000000
55.745172 48.000000
55.764654 48.000000
55.784137 60.000000
55.803619 70.000000
55.823102 59.000000
55.842584 72.000000
55.862066 53.000000
55.881549 56.000000
55.901031 56.000000
55.920513 59.000000
55.939996 52.000000
55.959478 52.000000
55.978961 47.000000
55.998443 48.000000
56.017925 75.000000
56.037408 44.000000
56.056890 53.000000
56.076372 51.000000
56.095855 68.000000
56.115337 65.000000
56.134819 64.000000
56.154302 64.000000
56.173784 57.000000
56.193267 65.000000
56.212749 62.000000
56.232231 59.000000
56.251714 44.000000
56.271196 72.000000
56.290678 77.000000
56.310161 70.000000
56.329643 73.000000
56.349126 98.000000
56.368608 79.000000
56.388090 70.000000
56.407573 86.000000
56.427055 113.000000
56.446537 128.000000
56.466020 145.000000
56.485502 169.000000
56.504984 279.000000
56.524467 290.000000
56.543949 386.000000
56.563432 371.000000
56.582914 346.000000
56.602396 315.000000
56.621879 244.000000
56.641361 212.000000
56.660843 234.000000
56.680326 194.000000
56.699808 266.000000
56.719291 231.000000
56.738773 201.000000
56.758255 192.000000
56.777738 153.000000
56.797220 116.000000
56.816702 97.000000
56.836185 89.000000
56.855667 83.000000
56.875149 71.000000
56.894632 77.000000
56.914114 55.000000
56.933597 78.000000
56.953079 76.000000
56.972561 70.000000
56.992044 92.000000
57.011526 67.000000
57.031008 80.000000
57.050491 71.000000
57.069973 92.000000
57.089456 75.000000
57.108938 90.000000
57.128420 114.000000
57.147903 90.000000
57.167385 108.000000
57.186867 125.000000
57.206350 109.000000
57.225832 137.000000
57.245315 123.000000
57.264797 205.000000
57.284279 185.000000
57.303762 288.000000
57.323244 331.000000
57.342726 455.000000
57.362209 590.000000
57.381691 711.000000
57.401173 663.000000
57.420656 592.000000
57.440138 546.000000
57.459621 426.000000
57.479103 412.000000
57.498585 387.000000
57.518068 404.000000
57.537550 435.000000
57.557032 413.000000
57.576515 348.000000
57.595997 317.000000
57.615480 237.000000
57.634962 183.000000
57.654444 129.000000
57.673927 157.000000
57.693409 117.000000
57.712891 102.000000
57.732374 104.000000
57.751856 99.000000
57.771338 94.000000
57.790821 75.000000
57.810303 73.000000
57.829786 88.000000
57.849268 80.000000
57.868750 93.000000
57.888233 91.000000
57.907715 81.000000
57.927197 90.000000
57.946680 90.000000
57.966162 88.000000
57.985645 90.000000
58.005127 133.000000
58.024609 148.000000
58.044092 146.000000
58.063574 175.000000
58.083056 149.000000
58.102539 137.000000
58.122021 146.000000
58.141503 117.000000
58.160986 132.000000
58.180468 109.000000
58.199951 113.000000
58.219433 125.000000
58.238915 111.000000
58.258398 93.000000
58.277880 92.000000
58.297362 85.000000
58.316845 71.000000
58.336327 76.000000
58.355810 71.000000
58.375292 93.000000
58.394774 62.000000
58.414257 67.000000
58.433739 57.000000
58.453221 66.000000
58.472704 49.000000
58.492186 65.000000
58.511668 63.000000
58.531151 58.000000
58.550633 56.000000
58.570116 57.000000
58.589598 62.000000
58.609080 75.000000
58.628563 60.000000
58.648045 56.000000
58.667527 54.000000
58.687010 59.000000
58.706492 57.000000
58.725975 55.000000
58.745457 70.000000
58.764939 54.000000
58.784422 45.000000
58.803904 64.000000
58.823386 49.000000
58.842869 54.000000
58.862351 51.000000
58.881834 68.000000
58.901316 51.000000
58.920798 62.000000
58.940281 61.000000
58.959763 64.000000
58.979245 52.000000
58.998728 64.000000
59.018210 43.000000
59.037692 69.000000
59.057175 59.000000
59.076657 30.000000
59.096140 42.000000
59.115622 68.000000
59.135104 63.000000
59.154587 47.000000
59.174069 55.000000
59.193551 64.000000
59.213034 60.000000
59.232516 44.000000
59.251999 57.000000
59.271481 62.000000
59.290963 67.000000
59.310446 41.000000
59.329928 62.000000
59.349410 48.000000
59.368893 50.000000
59.388375 55.000000
59.407857 60.000000
59.427340 53.000000
59.446822 52.000000
59.466305 66.000000
59.485787 48.000000
59.505269 51.000000
59.524752 64.000000
59.544234 52.000000
59.563716 57.000000
59.583199 55.000000
59.602681 48.000000
59.622164 57.000000
59.641646 51.000000
59.661128 57.000000
59.680611 53.000000
59.700093 53.000000
59.719575 56.000000
59.739058 64.000000
59.758540 60.000000
59.778022 66.000000
59.797505 54.000000
59.816987 60.000000
59.836470 57.000000
59.855952 56.000000
59.875434 67.000000
59.894917 57.000000
59.914399 77.000000
59.933881 77.000000
59.953364 100.000000
59.972846 103.000000
59.992329 76.000000
60.011811 76.000000
60.031293 63.000000
60.050776 68.000000
60.070258 61.000000
60.089740 76.000000
60.109223 76.000000
60.128705 71.000000
60.148187 79.000000
60.167670 73.000000
60.187152 73.000000
60.206635 59.000000
60.226117 79.000000
60.245599 70.000000
60.265082 49.000000
60.284564 77.000000
60.304046 70.000000
60.323529 69.000000
60.343011 83.000000
60.362494 64.000000
60.381976 63.000000
60.401458 89.000000
60.420941 75.000000
60.440423 92.000000
60.459905 82.000000
60.479388 95.000000
60.498870 114.000000
60.518352 122.000000
60.537835 132.000000
60.557317 162.000000
60.576800 214.000000
60.596282 277.000000
60.615764 385.000000
60.635247 489.000000
60.654729 576.000000
60.674211 527.000000
60.693694 457.000000
60.713176 367.000000
60.732659 316.000000
60.752141 287.000000
60.771623 303.000000
60.791106 306.000000
60.810588 356.000000
60.830070 365.000000
60.849553 350.000000
60.869035 304.000000
60.888518 262.000000
60.908000 254.000000
60.927482 310.000000
60.946965 338.000000
60.966447 392.000000
60.985929 445.000000
61.005412 444.000000
61.024894 374.000000
61.044376 292.000000
61.063859 228.000000
61.083341 230.000000
61.102824 231.000000
61.122306 229.000000
61.141788 261.000000
61.161271 252.000000
61.180753 263.000000
61.200235 234.000000
61.219718 189.000000
61.239200 166.000000
61.258683 182.000000
61.278165 217.000000
61.297647 259.000000
61.317130 272.000000
61.336612 357.000000
61.356094 348.000000
61.375577 396.000000
61.395059 329.000000
61.414541 260.000000
61.434024 244.000000
61.453506 203.000000
61.472989 198.000000
61.492471 228.000000
61.511953 252.000000
61.531436 247.000000
61.550918 201.000000
61.570400 204.000000
61.589883 175.000000
61.609365 126.000000
61.628848 131.000000
61.648330 110.000000
61.667812 100.000000
61.687295 81.000000
61.706777 91.000000
61.726259 76.000000
61.745742 71.000000
61.765224 57.000000
61.784706 60.000000
61.804189 64.000000
61.823671 59.000000
61.843154 53.000000
61.862636 54.000000
61.882118 61.000000
61.901601 49.000000
61.921083 57.000000
61.940565 51.000000
61.960048 67.000000
61.979530 44.000000
61.999013 58.000000
62.018495 49.000000
62.037977 55.000000
62.057460 47.000000
62.076942 62.000000
62.096424 61.000000
62.115907 56.000000
62.135389 59.000000
62.154871 54.000000
62.174354 52.000000
62.193836 47.000000
62.213319 56.000000
62.232801 49.000000
62.252283 48.000000
62.271766 60.000000
62.291248 54.000000
62.310730 39.000000
62.330213 61.000000
62.349695 62.000000
62.369178 43.000000
62.388660 57.000000
62.408142 55.000000
62.427625 48.000000
62.447107 70.000000
62.466589 61.000000
62.486072 56.000000
62.505554 59.000000
62.525037 57.000000
62.544519 49.000000
62.564001 56.000000
62.583484 52.000000
62.602966 65.000000
62.622448 67.000000
62.641931 55.000000
62.661413 50.000000
62.680895 69.000000
62.700378 65.000000
62.719860 71.000000
62.739343 45.000000
62.758825 74.000000
62.778307 64.000000
62.797790 60.000000
62.817272 89.000000
62.836754 59.000000
62.856237 73.000000
62.875719 84.000000
62.895202 83.000000
62.914684 87.000000
62.934166 100.000000
62.953649 127.000000
62.973131 150.000000
62.992613 148.000000
63.012096 204.000000
63.031578 241.000000
63.051060 197.000000
63.070543 206.000000
63.090025 177.000000
63.109508 178.000000
63.128990 167.000000
63.148472 150.000000
63.167955 134.000000
63.187437 171.000000
63.206919 155.000000
63.226402 155.000000
63.245884 121.000000
63.265367 129.000000
63.284849 114.000000
63.304331 95.000000
63.323814 81.000000
63.343296 64.000000
63.362778 92.000000
63.382261 74.000000
63.401743 73.000000
63.421225 56.000000
63.440708 54.000000
63.460190 57.000000
63.479673 56.000000
63.499155 58.000000
63.518637 58.000000
63.538120 63.000000
63.557602 55.000000
63.577084 54.000000
63.596567 59.000000
63.616049 59.000000
63.635532 50.000000
63.655014 47.000000
63.674496 48.000000
63.693979 54.000000
63.713461 43.000000
63.732943 54.000000
63.752426 55.000000
63.771908 77.000000
63.791390 65.000000
63.810873 49.000000
63.830355 63.000000
63.849838 58.000000
63.869320 53.000000
63.888802 62.000000
63.908285 48.000000
63.927767 54.000000
63.947249 65.000000
63.966732 58.000000
63.986214 58.000000
64.005697 70.000000
64.025179 42.000000
64.044661 55.000000
64.064144 59.000000
64.083626 53.000000
64.103108 45.000000
64.122591 56.000000
64.142073 65.000000
64.161556 59.000000
64.181038 59.000000
64.200520 71.000000
64.220003 57.000000
64.239485 66.000000
64.258967 59.000000
64.278450 67.000000
64.297932 76.000000
64.317414 69.000000
64.336897 81.000000
64.356379 69.000000
64.375862 76.000000
64.395344 82.000000
64.414826 73.000000
64.434309 95.000000
64.453791 88.000000
64.473273 96.000000
64.492756 129.000000
64.512238 127.000000
64.531721 166.000000
64.551203 210.000000
64.570685 250.000000
64.590168 312.000000
64.609650 422.000000
64.629132 530.000000
64.648615 658.000000
64.668097 587.000000
64.687579 523.000000
64.707062 473.000000
64.726544 337.000000
64.746027 330.000000
64.765509 328.000000
64.784991 294.000000
64.804474 353.000000
64.823956 355.000000
64.843438 369.000000
64.862921 337.000000
64.882403 267.000000
64.901886 233.000000
64.921368 171.000000
64.940850 155.000000
64.960333 123.000000
64.979815 106.000000
64.999297 95.000000
65.018780 89.000000
65.038262 106.000000
65.057744 90.000000
65.077227 59.000000
65.096709 69.000000
65.116192 56.000000
65.135674 89.000000
65.155156 72.000000
65.174639 86.000000
65.194121 86.000000
65.213603 67.000000
65.233086 66.000000
65.252568 73.000000
65.272051 67.000000
65.291533 87.000000
65.311015 99.000000
65.330498 83.000000
65.349980 91.000000
65.369462 77.000000
65.388945 87.000000
65.408427 79.000000
65.427909 93.000000
65.447392 109.000000
65.466874 130.000000
65.486357 145.000000
65.505839 179.000000
65.525321 234.000000
65.544804 307.000000
65.564286 349.000000
65.583768 379.000000
65.603251 409.000000
65.622733 417.000000
65.642216 379.000000
65.661698 345.000000
65.681180 277.000000
65.700663 266.000000
65.720145 225.000000
65.739627 235.000000
65.759110 271.000000
65.778592 236.000000
65.798075 260.000000
65.817557 225.000000
65.837039 222.000000
65.856522 183.000000
65.876004 128.000000
65.895486 111.000000
65.914969 104.000000
65.934451 101.000000
65.953933 87.000000
65.973416 76.000000
65.992898 69.000000
66.012381 71.000000
66.031863 68.000000
66.051345 61.000000
66.070828 58.000000
66.090310 64.000000
66.109792 51.000000
66.129275 46.000000
66.148757 55.000000
66.168240 63.000000
66.187722 57.000000
66.207204 45.000000
66.226687 58.000000
66.246169 39.000000
66.265651 63.000000
66.285134 43.000000
66.304616 56.000000
66.324098 54.000000
66.343581 59.000000
66.363063 55.000000
66.382546 52.000000
66.402028 54.000000
66.421510 46.000000
66.440993 55.000000
66.460475 70.000000
66.479957 45.000000
66.499440 57.000000
66.518922 62.000000
66.538405 56.000000
66.557887 51.000000
66.577369 43.000000
66.596852 55.000000
66.616334 51.000000
66.635816 40.000000
66.655299 52.000000
66.674781 47.000000
66.694263 47.000000
66.713746 38.000000
66.733228 46.000000
66.752711 44.000000
66.772193 64.000000
66.791675 40.000000
66.811158 44.000000
66.830640 38.000000
66.850122 39.000000
66.869605 51.000000
66.889087 54.000000
66.908570 39.000000
66.928052 39.000000
66.947534 37.000000
66.967017 39.000000
66.986499 45.000000
67.005981 48.000000
67.025464 35.000000
67.044946 48.000000
67.064428 40.000000
67.083911 42.000000
67.103393 42.000000
67.122876 39.000000
67.142358 48.000000
67.161840 41.000000
67.181323 42.000000
67.200805 40.000000
67.220287 46.000000
67.239770 55.000000
67.259252 45.000000
67.278735 52.000000
67.298217 42.000000
67.317699 47.000000
67.337182 52.000000
67.356664 44.000000
67.376146 51.000000
67.395629 44.000000
67.415111 50.000000
67.434593 62.000000
67.454076 53.000000
67.473558 33.000000
67.493041 46.000000
67.512523 44.000000
67.532005 57.000000
67.551488 49.000000
67.570970 44.000000
67.590452 44.000000
67.609935 58.000000
67.629417 43.000000
67.648900 53.000000
67.668382 40.000000
67.687864 47.000000
67.707347 58.000000
67.726829 39.000000
67.746311 45.000000
67.765794 47.000000
67.785276 51.000000
67.804759 44.000000
67.824241 50.000000
67.843723 53.000000
67.863206 50.000000
67.882688 44.000000
67.902170 49.000000
67.921653 48.000000
67.941135 46.000000
67.960617 46.000000
67.980100 56.000000
67.999582 39.000000
68.019065 71.000000
68.038547 40.000000
68.058029 62.000000
68.077512 44.000000
68.096994 64.000000
68.116476 61.000000
68.135959 51.000000
68.155441 55.000000
68.174924 53.000000
68.194406 51.000000
68.213888 45.000000
68.233371 60.000000
68.252853 32.000000
68.272335 49.000000
68.291818 53.000000
68.311300 61.000000
68.330782 46.000000
68.350265 45.000000
68.369747 40.000000
68.389230 46.000000
68.408712 39.000000
68.428194 50.000000
68.447677 54.000000
68.467159 42.000000
68.486641 47.000000
68.506124 52.000000
68.525606 48.000000
68.545089 50.000000
68.564571 45.000000
68.584053 45.000000
68.603536 45.000000
68.623018 38.000000
68.642500 41.000000
68.661983 48.000000
68.681465 52.000000
68.700947 54.000000
68.720430 50.000000
68.739912 56.000000
68.759395 49.000000
68.778877 51.000000
68.798359 44.000000
68.817842 47.000000
68.837324 47.000000
68.856806 54.000000
68.876289 58.000000
68.895771 41.000000
68.915254 48.000000
68.934736 60.000000
68.954218 49.000000
68.973701 60.000000
68.993183 69.000000
69.012665 70.000000
69.032148 73.000000
69.051630 70.000000
69.071112 101.000000
69.090595 88.000000
69.110077 128.000000
69.129560 176.000000
69.149042 195.000000
69.168524 240.000000
69.188007 242.000000
69.207489 224.000000
69.226971 199.000000
69.246454 156.000000
69.265936 141.000000
69.285419 138.000000
69.304901 107.000000
69.324383 116.000000
69.343866 148.000000
69.363348 167.000000
69.382830 131.000000
69.402313 138.000000
69.421795 124.000000
69.441278 107.000000
69.460760 92.000000
69.480242 85.000000
69.499725 74.000000
69.519207 68.000000
69.538689 51.000000
69.558172 60.000000
69.577654 62.000000
69.597136 54.000000
69.616619 43.000000
69.636101 56.000000
69.655584 58.000000
69.675066 49.000000
69.694548 48.000000
69.714031 48.000000
69.733513 49.000000
69.752995 55.000000
69.772478 64.000000
69.791960 56.000000
69.811443 62.000000
69.830925 71.000000
69.850407 62.000000
69.869890 64.000000
69.889372 51.000000
69.908854 66.000000
69.928337 56.000000
69.947819 62.000000
69.967301 67.000000
69.986784 62.000000
70.006266 73.000000
70.025749 85.000000
