4.000000 490.000000
4.019482 456.000000
4.038965 455.000000
4.058447 454.000000
4.077929 438.000000
4.097412 437.000000
4.116894 463.000000
4.136377 431.000000
4.155859 453.000000
4.175341 432.000000
4.194824 427.000000
4.214306 417.000000
4.233788 416.000000
4.253271 434.000000
4.272753 385.000000
4.292236 372.000000
4.311718 354.000000
4.331200 376.000000
4.350683 350.000000
4.370165 358.000000
4.389647 367.000000
4.409130 357.000000
4.428612 353.000000
4.448094 354.000000
4.467577 324.000000
4.487059 323.000000
4.506542 334.000000
4.526024 331.000000
4.545506 330.000000
4.564989 314.000000
4.584471 319.000000
4.603953 312.000000
4.623436 297.000000
4.642918 304.000000
4.662401 277.000000
4.681883 287.000000
4.701365 278.000000
4.720848 311.000000
4.740330 313.000000
4.759812 281.000000
4.779295 271.000000
4.798777 243.000000
4.818259 278.000000
4.837742 286.000000
4.857224 254.000000
4.876707 273.000000
4.896189 233.000000
4.915671 264.000000
4.935154 273.000000
4.954636 257.000000
4.974118 266.000000
4.993601 265.000000
5.013083 255.000000
5.032566 254.000000
5.052048 243.000000
5.071530 248.000000
5.091013 254.000000
5.110495 239.000000
5.129977 214.000000
5.149460 248.000000
5.168942 234.000000
5.188425 229.000000
5.207907 189.000000
5.227389 227.000000
5.246872 247.000000
5.266354 234.000000
5.285836 205.000000
5.305319 191.000000
5.324801 216.000000
5.344283 222.000000
5.363766 203.000000
5.383248 216.000000
5.402731 227.000000
5.422213 221.000000
5.441695 216.000000
5.461178 230.000000
5.480660 201.000000
5.500142 203.000000
5.519625 202.000000
5.539107 195.000000
5.558590 201.000000
5.578072 196.000000
5.597554 178.000000
5.617037 184.000000
5.636519 230.000000
5.656001 218.000000
5.675484 205.000000
5.694966 210.000000
5.714448 203.000000
5.733931 189.000000
5.753413 189.000000
5.772896 205.000000
5.792378 188.000000
5.811860 210.000000
5.831343 169.000000
5.850825 188.000000
5.870307 160.000000
5.889790 171.000000
5.909272 180.000000
5.928755 163.000000
5.948237 172.000000
5.967719 196.000000
5.987202 181.000000
6.006684 175.000000
6.026166 179.000000
6.045649 171.000000
6.065131 166.000000
6.084613 176.000000
6.104096 183.000000
6.123578 164.000000
6.143061 161.000000
6.162543 148.000000
6.182025 161.000000
6.201508 197.000000
6.220990 160.000000
6.240472 142.000000
6.259955 144.000000
6.279437 163.000000
6.298920 147.000000
6.318402 148.000000
6.337884 143.000000
6.357367 165.000000
6.376849 170.000000
6.396331 163.000000
6.415814 148.000000
6.435296 147.000000
6.454778 132.000000
6.474261 124.000000
6.493743 158.000000
6.513226 143.000000
6.532708 138.000000
6.552190 154.000000
6.571673 144.000000
6.591155 124.000000
6.610637 139.000000
6.630120 150.000000
6.649602 147.000000
6.669085 130.000000
6.688567 134.000000
6.708049 138.000000
6.727532 156.000000
6.747014 143.000000
6.766496 150.000000
6.785979 145.000000
6.805461 133.000000
6.824944 126.000000
6.844426 141.000000
6.863908 149.000000
6.883391 132.000000
6.902873 134.000000
6.922355 127.000000
6.941838 125.000000
6.961320 114.000000
6.980802 132.000000
7.000285 126.000000
7.019767 137.000000
7.039250 128.000000
7.058732 94.000000
7.078214 117.000000
7.097697 105.000000
7.117179 123.000000
7.136661 104.000000
7.156144 130.000000
7.175626 134.000000
7.195109 97.000000
7.214591 114.000000
7.234073 118.000000
7.253556 107.000000
7.273038 113.000000
7.292520 121.000000
7.312003 107.000000
7.331485 128.000000
7.350967 115.000000
7.370450 95.000000
7.389932 109.000000
7.409415 110.000000
7.428897 99.000000
7.448379 104.000000
7.467862 108.000000
7.487344 129.000000
7.506826 112.000000
7.526309 128.000000
7.545791 132.000000
7.565274 127.000000
7.584756 102.000000
7.604238 90.000000
7.623721 109.000000
7.643203 116.000000
7.662685 110.000000
7.682168 107.000000
7.701650 115.000000
7.721132 107.000000
7.740615 113.000000
7.760097 112.000000
7.779580 120.000000
7.799062 110.000000
7.818544 111.000000
7.838027 105.000000
7.857509 116.000000
7.876991 97.000000
7.896474 107.000000
7.915956 92.000000
7.935439 108.000000
7.954921 94.000000
7.974403 105.000000
7.993886 107.000000
8.013368 98.000000
8.032850 116.000000
8.052333 113.000000
8.071815 99.000000
8.091297 105.000000
8.110780 108.000000
8.130262 116.000000
8.149745 102.000000
8.169227 105.000000
8.188709 89.000000
8.208192 101.000000
8.227674 108.000000
8.247156 99.000000
8.266639 110.000000
8.286121 118.000000
8.305604 99.000000
8.325086 110.000000
8.344568 108.000000
8.364051 104.000000
8.383533 92.000000
8.403015 98.000000
8.422498 105.000000
8.441980 111.000000
8.461463 110.000000
8.480945 106.000000
8.500427 88.000000
8.519910 108.000000
8.539392 90.000000
8.558874 98.000000
8.578357 108.000000
8.597839 95.000000
8.617321 106.000000
8.636804 96.000000
8.656286 91.000000
8.675769 103.000000
8.695251 111.000000
8.714733 104.000000
8.734216 92.000000
8.753698 111.000000
8.773180 97.000000
8.792663 105.000000
8.812145 101.000000
8.831628 90.000000
8.851110 95.000000
8.870592 90.000000
8.890075 124.000000
8.909557 97.000000
8.929039 114.000000
8.948522 92.000000
8.968004 85.000000
8.987486 98.000000
9.006969 110.000000
9.026451 93.000000
9.045934 99.000000
9.065416 99.000000
9.084898 107.000000
9.104381 121.000000
9.123863 121.000000
9.143345 100.000000
9.162828 87.000000
9.182310 97.000000
9.201793 87.000000
9.221275 93.000000
9.240757 94.000000
9.260240 104.000000
9.279722 107.000000
9.299204 97.000000
9.318687 87.000000
9.338169 82.000000
9.357651 93.000000
9.377134 103.000000
9.396616 115.000000
9.416099 103.000000
9.435581 95.000000
9.455063 102.000000
9.474546 110.000000
9.494028 98.000000
9.513510 103.000000
9.532993 94.000000
9.552475 89.000000
9.571958 97.000000
9.591440 94.000000
9.610922 110.000000
9.630405 108.000000
9.649887 98.000000
9.669369 99.000000
9.688852 94.000000
9.708334 95.000000
9.727816 89.000000
9.747299 85.000000
9.766781 81.000000
9.786264 91.000000
9.805746 108.000000
9.825228 103.000000
9.844711 111.000000
9.864193 85.000000
9.883675 81.000000
9.903158 96.000000
9.922640 94.000000
9.942123 102.000000
9.961605 73.000000
9.981087 81.000000
10.000570 93.000000
10.020052 99.000000
10.039534 86.000000
10.059017 103.000000
10.078499 89.000000
10.097982 102.000000
10.117464 73.000000
10.136946 97.000000
10.156429 94.000000
10.175911 78.000000
10.195393 94.000000
10.214876 97.000000
10.234358 105.000000
10.253840 96.000000
10.273323 90.000000
10.292805 106.000000
10.312288 89.000000
10.331770 88.000000
10.351252 98.000000
10.370735 108.000000
10.390217 93.000000
10.409699 111.000000
10.429182 99.000000
10.448664 120.000000
10.468147 87.000000
10.487629 85.000000
10.507111 78.000000
10.526594 102.000000
10.546076 76.000000
10.565558 94.000000
10.585041 104.000000
10.604523 94.000000
10.624005 84.000000
10.643488 97.000000
10.662970 100.000000
10.682453 80.000000
10.701935 72.000000
10.721417 79.000000
10.740900 96.000000
10.760382 75.000000
10.779864 85.000000
10.799347 105.000000
10.818829 70.000000
10.838312 116.000000
10.857794 98.000000
10.877276 81.000000
10.896759 92.000000
10.916241 78.000000
10.935723 88.000000
10.955206 70.000000
10.974688 87.000000
10.994170 104.000000
11.013653 105.000000
11.033135 84.000000
11.052618 97.000000
11.072100 81.000000
11.091582 82.000000
11.111065 91.000000
11.130547 76.000000
11.150029 93.000000
11.169512 115.000000
11.188994 81.000000
11.208477 73.000000
11.227959 87.000000
11.247441 93.000000
11.266924 95.000000
11.286406 103.000000
11.305888 75.000000
11.325371 87.000000
11.344853 85.000000
11.364335 111.000000
11.383818 77.000000
11.403300 91.000000
11.422783 76.000000
11.442265 80.000000
11.461747 91.000000
11.481230 83.000000
11.500712 82.000000
11.520194 99.000000
11.539677 89.000000
11.559159 116.000000
11.578642 87.000000
11.598124 92.000000
11.617606 88.000000
11.637089 97.000000
11.656571 101.000000
11.676053 94.000000
11.695536 75.000000
11.715018 93.000000
11.734500 70.000000
11.753983 82.000000
11.773465 92.000000
11.792948 88.000000
11.812430 105.000000
11.831912 91.000000
11.851395 88.000000
11.870877 93.000000
11.890359 81.000000
11.909842 91.000000
11.929324 72.000000
11.948807 82.000000
11.968289 89.000000
11.987771 101.000000
12.007254 89.000000
12.026736 92.000000
12.046218 72.000000
12.065701 84.000000
12.085183 101.000000
12.104666 85.000000
12.124148 81.000000
12.143630 87.000000
12.163113 68.000000
12.182595 83.000000
12.202077 80.000000
12.221560 81.000000
12.241042 82.000000
12.260524 76.000000
12.280007 94.000000
12.299489 95.000000
12.318972 91.000000
12.338454 88.000000
12.357936 88.000000
12.377419 77.000000
12.396901 86.000000
12.416383 85.000000
12.435866 82.000000
12.455348 77.000000
12.474831 86.000000
12.494313 82.000000
12.513795 86.000000
12.533278 79.000000
12.552760 93.000000
12.572242 73.000000
12.591725 91.000000
12.611207 87.000000
12.630689 65.000000
12.650172 72.000000
12.669654 72.000000
12.689137 85.000000
12.708619 82.000000
12.728101 85.000000
12.747584 85.000000
12.767066 88.000000
12.786548 81.000000
12.806031 81.000000
12.825513 89.000000
12.844996 95.000000
12.864478 81.000000
12.883960 68.000000
12.903443 76.000000
12.922925 83.000000
12.942407 75.000000
12.961890 86.000000
12.981372 83.000000
13.000854 83.000000
13.020337 64.000000
13.039819 69.000000
13.059302 88.000000
13.078784 74.000000
13.098266 90.000000
13.117749 83.000000
13.137231 86.000000
13.156713 73.000000
13.176196 82.000000
13.195678 82.000000
13.215161 80.000000
13.234643 86.000000
13.254125 84.000000
13.273608 81.000000
13.293090 84.000000
13.312572 88.000000
13.332055 79.000000
13.351537 90.000000
13.371019 90.000000
13.390502 73.000000
13.409984 63.000000
13.429467 88.000000
13.448949 72.000000
13.468431 83.000000
13.487914 65.000000
13.507396 78.000000
13.526878 75.000000
13.546361 58.000000
13.565843 64.000000
13.585326 80.000000
13.604808 82.000000
13.624290 83.000000
13.643773 84.000000
13.663255 68.000000
13.682737 71.000000
13.702220 71.000000
13.721702 80.000000
13.741185 84.000000
13.760667 73.000000
13.780149 85.000000
13.799632 77.000000
13.819114 72.000000
13.838596 68.000000
13.858079 58.000000
13.877561 70.000000
13.897043 59.000000
13.916526 66.000000
13.936008 75.000000
13.955491 71.000000
13.974973 68.000000
13.994455 80.000000
14.013938 60.000000
14.033420 82.000000
14.052902 83.000000
14.072385 73.000000
14.091867 80.000000
14.111350 70.000000
14.130832 81.000000
14.150314 57.000000
14.169797 82.000000
14.189279 68.000000
14.208761 74.000000
14.228244 80.000000
14.247726 79.000000
14.267208 88.000000
14.286691 80.000000
14.306173 92.000000
14.325656 81.000000
14.345138 64.000000
14.364620 67.000000
14.384103 60.000000
14.403585 78.000000
14.423067 68.000000
14.442550 83.000000
14.462032 73.000000
14.481515 69.000000
14.500997 87.000000
14.520479 73.000000
14.539962 70.000000
14.559444 75.000000
14.578926 75.000000
14.598409 67.000000
14.617891 69.000000
14.637373 59.000000
14.656856 67.000000
14.676338 78.000000
14.695821 73.000000
14.715303 77.000000
14.734785 64.000000
14.754268 81.000000
14.773750 66.000000
14.793232 70.000000
14.812715 75.000000
14.832197 72.000000
14.851680 71.000000
14.871162 77.000000
14.890644 64.000000
14.910127 68.000000
14.929609 70.000000
14.949091 76.000000
14.968574 66.000000
14.988056 74.000000
15.007538 57.000000
15.027021 56.000000
15.046503 65.000000
15.065986 52.000000
15.085468 74.000000
15.104950 63.000000
15.124433 59.000000
15.143915 81.000000
15.163397 68.000000
15.182880 71.000000
15.202362 70.000000
15.221845 75.000000
15.241327 61.000000
15.260809 63.000000
15.280292 82.000000
15.299774 75.000000
15.319256 59.000000
15.338739 58.000000
15.358221 72.000000
15.377704 73.000000
15.397186 76.000000
15.416668 78.000000
15.436151 63.000000
15.455633 67.000000
15.475115 68.000000
15.494598 74.000000
15.514080 66.000000
15.533562 57.000000
15.553045 61.000000
15.572527 69.000000
15.592010 64.000000
15.611492 53.000000
15.630974 72.000000
15.650457 61.000000
15.669939 56.000000
15.689421 61.000000
15.708904 76.000000
15.728386 61.000000
15.747869 62.000000
15.767351 76.000000
15.786833 71.000000
15.806316 73.000000
15.825798 45.000000
15.845280 83.000000
15.864763 70.000000
15.884245 66.000000
15.903727 53.000000
15.923210 70.000000
15.942692 66.000000
15.962175 64.000000
15.981657 77.000000
16.001139 55.000000
16.020622 65.000000
16.040104 56.000000
16.059586 63.000000
16.079069 76.000000
16.098551 61.000000
16.118034 63.000000
16.137516 58.000000
16.156998 80.000000
16.176481 73.000000
16.195963 63.000000
16.215445 76.000000
16.234928 68.000000
16.254410 63.000000
16.273892 69.000000
16.293375 58.000000
16.312857 62.000000
16.332340 57.000000
16.351822 54.000000
16.371304 65.000000
16.390787 63.000000
16.410269 67.000000
16.429751 69.000000
16.449234 53.000000
16.468716 66.000000
16.488199 65.000000
16.507681 69.000000
16.527163 61.000000
16.546646 56.000000
16.566128 65.000000
16.585610 60.000000
16.605093 61.000000
16.624575 53.000000
16.644057 54.000000
16.663540 73.000000
16.683022 52.000000
16.702505 61.000000
16.721987 53.000000
16.741469 55.000000
16.760952 74.000000
16.780434 50.000000
16.799916 55.000000
16.819399 44.000000
16.838881 69.000000
16.858364 63.000000
16.877846 71.000000
16.897328 50.000000
16.916811 55.000000
16.936293 51.000000
16.955775 52.000000
16.975258 48.000000
16.994740 53.000000
17.014222 63.000000
17.033705 66.000000
17.053187 46.000000
17.072670 46.000000
17.092152 42.000000
17.111634 59.000000
17.131117 66.000000
17.150599 51.000000
17.170081 46.000000
17.189564 53.000000
17.209046 74.000000
17.228529 60.000000
17.248011 81.000000
17.267493 70.000000
17.286976 56.000000
17.306458 56.000000
17.325940 66.000000
17.345423 48.000000
17.364905 52.000000
17.384388 64.000000
17.403870 55.000000
17.423352 57.000000
17.442835 60.000000
17.462317 46.000000
17.481799 55.000000
17.501282 53.000000
17.520764 59.000000
17.540246 47.000000
17.559729 54.000000
17.579211 50.000000
17.598694 63.000000
17.618176 57.000000
17.637658 45.000000
17.657141 48.000000
17.676623 56.000000
17.696105 68.000000
17.715588 48.000000
17.735070 63.000000
17.754553 50.000000
17.774035 58.000000
17.793517 55.000000
17.813000 49.000000
17.832482 59.000000
17.851964 44.000000
17.871447 58.000000
17.890929 76.000000
17.910411 41.000000
17.929894 40.000000
17.949376 57.000000
17.968859 49.000000
17.988341 58.000000
18.007823 58.000000
18.027306 47.000000
18.046788 66.000000
18.066270 56.000000
18.085753 55.000000
18.105235 61.000000
18.124718 45.000000
18.144200 47.000000
18.163682 52.000000
18.183165 56.000000
18.202647 61.000000
18.222129 51.000000
18.241612 49.000000
18.261094 38.000000
18.280576 53.000000
18.300059 48.000000
18.319541 51.000000
18.339024 52.000000
18.358506 57.000000
18.377988 43.000000
18.397471 53.000000
18.416953 62.000000
18.436435 49.000000
18.455918 50.000000
18.475400 58.000000
18.494883 49.000000
18.514365 56.000000
18.533847 51.000000
18.553330 58.000000
18.572812 54.000000
18.592294 49.000000
18.611777 40.000000
18.631259 36.000000
18.650741 61.000000
18.670224 56.000000
18.689706 42.000000
18.709189 50.000000
18.728671 55.000000
18.748153 54.000000
18.767636 45.000000
18.787118 51.000000
18.806600 53.000000
18.826083 58.000000
18.845565 44.000000
18.865048 46.000000
18.884530 63.000000
18.904012 39.000000
18.923495 41.000000
18.942977 47.000000
18.962459 52.000000
18.981942 53.000000
19.001424 39.000000
19.020907 54.000000
19.040389 38.000000
19.059871 53.000000
19.079354 57.000000
19.098836 47.000000
19.118318 59.000000
19.137801 55.000000
19.157283 49.000000
19.176765 54.000000
19.196248 45.000000
19.215730 44.000000
19.235213 45.000000
19.254695 44.000000
19.274177 43.000000
19.293660 39.000000
19.313142 55.000000
19.332624 41.000000
19.352107 46.000000
19.371589 46.000000
19.391072 39.000000
19.410554 53.000000
19.430036 45.000000
19.449519 43.000000
19.469001 51.000000
19.488483 50.000000
19.507966 38.000000
19.527448 42.000000
19.546930 52.000000
19.566413 38.000000
19.585895 46.000000
19.605378 49.000000
19.624860 50.000000
19.644342 33.000000
19.663825 43.000000
19.683307 51.000000
19.702789 49.000000
19.722272 45.000000
19.741754 49.000000
19.761237 45.000000
19.780719 45.000000
19.800201 51.000000
19.819684 31.000000
19.839166 44.000000
19.858648 45.000000
19.878131 53.000000
19.897613 48.000000
19.917095 63.000000
19.936578 45.000000
19.956060 47.000000
19.975543 31.000000
19.995025 45.000000
20.014507 53.000000
20.033990 42.000000
20.053472 37.000000
20.072954 47.000000
20.092437 52.000000
20.111919 33.000000
20.131402 39.000000
20.150884 42.000000
20.170366 33.000000
20.189849 48.000000
20.209331 37.000000
20.228813 51.000000
20.248296 52.000000
20.267778 40.000000
20.287260 41.000000
20.306743 37.000000
20.326225 32.000000
20.345708 44.000000
20.365190 48.000000
20.384672 34.000000
20.404155 42.000000
20.423637 46.000000
20.443119 47.000000
20.462602 45.000000
20.482084 43.000000
20.501567 31.000000
20.521049 46.000000
20.540531 50.000000
20.560014 51.000000
20.579496 47.000000
20.598978 48.000000
20.618461 41.000000
20.637943 37.000000
20.657426 42.000000
20.676908 46.000000
20.696390 42.000000
20.715873 44.000000
20.735355 47.000000
20.754837 51.000000
20.774320 49.000000
20.793802 51.000000
20.813284 45.000000
20.832767 41.000000
20.852249 52.000000
20.871732 39.000000
20.891214 49.000000
20.910696 37.000000
20.930179 34.000000
20.949661 44.000000
20.969143 53.000000
20.988626 46.000000
21.008108 46.000000
21.027591 43.000000
21.047073 45.000000
21.066555 48.000000
21.086038 35.000000
21.105520 45.000000
21.125002 46.000000
21.144485 44.000000
21.163967 43.000000
21.183449 52.000000
21.202932 40.000000
21.222414 37.000000
21.241897 41.000000
21.261379 42.000000
21.280861 45.000000
21.300344 36.000000
21.319826 32.000000
21.339308 43.000000
21.358791 47.000000
21.378273 48.000000
21.397756 42.000000
21.417238 43.000000
21.436720 44.000000
21.456203 41.000000
21.475685 49.000000
21.495167 45.000000
21.514650 38.000000
21.534132 38.000000
21.553614 48.000000
21.573097 57.000000
21.592579 37.000000
21.612062 49.000000
21.631544 48.000000
21.651026 35.000000
21.670509 40.000000
21.689991 42.000000
21.709473 53.000000
21.728956 46.000000
21.748438 52.000000
21.767921 46.000000
21.787403 36.000000
21.806885 32.000000
21.826368 35.000000
21.845850 38.000000
21.865332 43.000000
21.884815 55.000000
21.904297 54.000000
21.923779 35.000000
21.943262 37.000000
21.962744 40.000000
21.982227 49.000000
22.001709 36.000000
22.021191 42.000000
22.040674 39.000000
22.060156 37.000000
22.079638 32.000000
22.099121 42.000000
22.118603 42.000000
22.138086 43.000000
22.157568 40.000000
22.177050 55.000000
22.196533 39.000000
22.216015 49.000000
22.235497 58.000000
22.254980 44.000000
22.274462 32.000000
22.293945 51.000000
22.313427 34.000000
22.332909 34.000000
22.352392 40.000000
22.371874 38.000000
22.391356 44.000000
22.410839 41.000000
22.430321 47.000000
22.449803 51.000000
22.469286 43.000000
22.488768 37.000000
22.508251 54.000000
22.527733 49.000000
22.547215 48.000000
22.566698 47.000000
22.586180 59.000000
22.605662 42.000000
22.625145 39.000000
22.644627 28.000000
22.664110 45.000000
22.683592 43.000000
22.703074 47.000000
22.722557 43.000000
22.742039 45.000000
22.761521 44.000000
22.781004 44.000000
22.800486 53.000000
22.819968 39.000000
22.839451 52.000000
22.858933 57.000000
22.878416 69.000000
22.897898 55.000000
22.917380 72.000000
22.936863 111.000000
22.956345 147.000000
22.975827 209.000000
22.995310 320.000000
23.014792 481.000000
23.034275 583.000000
23.053757 569.000000
23.073239 432.000000
23.092722 435.000000
23.112204 291.000000
23.131686 209.000000
23.151169 128.000000
23.170651 100.000000
23.190133 90.000000
23.209616 66.000000
23.229098 61.000000
23.248581 54.000000
23.268063 66.000000
23.287545 40.000000
23.307028 47.000000
23.326510 40.000000
23.345992 51.000000
23.365475 43.000000
23.384957 37.000000
23.404440 54.000000
23.423922 31.000000
23.443404 40.000000
23.462887 29.000000
23.482369 34.000000
23.501851 46.000000
23.521334 47.000000
23.540816 33.000000
23.560298 40.000000
23.579781 43.000000
23.599263 47.000000
23.618746 35.000000
23.638228 42.000000
23.657710 36.000000
23.677193 39.000000
23.696675 38.000000
23.716157 44.000000
23.735640 49.000000
23.755122 39.000000
23.774605 38.000000
23.794087 31.000000
23.813569 28.000000
23.833052 26.000000
23.852534 38.000000
23.872016 41.000000
23.891499 42.000000
23.910981 34.000000
23.930463 31.000000
23.949946 40.000000
23.969428 50.000000
23.988911 34.000000
24.008393 38.000000
24.027875 38.000000
24.047358 54.000000
24.066840 42.000000
24.086322 35.000000
24.105805 25.000000
24.125287 45.000000
24.144770 31.000000
24.164252 34.000000
24.183734 36.000000
24.203217 37.000000
24.222699 39.000000
24.242181 40.000000
24.261664 37.000000
24.281146 51.000000
24.300629 29.000000
24.320111 41.000000
24.339593 38.000000
24.359076 30.000000
24.378558 38.000000
24.398040 39.000000
24.417523 34.000000
24.437005 39.000000
24.456487 25.000000
24.475970 30.000000
24.495452 44.000000
24.514935 31.000000
24.534417 49.000000
24.553899 41.000000
24.573382 40.000000
24.592864 28.000000
24.612346 42.000000
24.631829 31.000000
24.651311 52.000000
24.670794 51.000000
24.690276 40.000000
24.709758 45.000000
24.729241 38.000000
24.748723 35.000000
24.768205 39.000000
24.787688 27.000000
24.807170 32.000000
24.826652 33.000000
24.846135 41.000000
24.865617 35.000000
24.885100 33.000000
24.904582 29.000000
24.924064 37.000000
24.943547 45.000000
24.963029 36.000000
24.982511 34.000000
25.001994 44.000000
25.021476 35.000000
25.040959 34.000000
25.060441 31.000000
25.079923 34.000000
25.099406 34.000000
25.118888 37.000000
25.138370 35.000000
25.157853 37.000000
25.177335 35.000000
25.196817 50.000000
25.216300 28.000000
25.235782 27.000000
25.255265 39.000000
25.274747 39.000000
25.294229 34.000000
25.313712 40.000000
25.333194 34.000000
25.352676 38.000000
25.372159 36.000000
25.391641 26.000000
25.411124 41.000000
25.430606 26.000000
25.450088 34.000000
25.469571 25.000000
25.489053 28.000000
25.508535 37.000000
25.528018 43.000000
25.547500 35.000000
25.566982 46.000000
25.586465 31.000000
25.605947 36.000000
25.625430 30.000000
25.644912 39.000000
25.664394 43.000000
25.683877 28.000000
25.703359 40.000000
25.722841 32.000000
25.742324 36.000000
25.761806 38.000000
25.781289 33.000000
25.800771 31.000000
25.820253 36.000000
25.839736 34.000000
25.859218 39.000000
25.878700 32.000000
25.898183 31.000000
25.917665 32.000000
25.937148 34.000000
25.956630 31.000000
25.976112 34.000000
25.995595 32.000000
26.015077 48.000000
26.034559 34.000000
26.054042 38.000000
26.073524 34.000000
26.093006 39.000000
26.112489 27.000000
26.131971 26.000000
26.151454 39.000000
26.170936 36.000000
26.190418 29.000000
26.209901 34.000000
26.229383 45.000000
26.248865 29.000000
26.268348 28.000000
26.287830 45.000000
26.307313 38.000000
26.326795 39.000000
26.346277 43.000000
26.365760 40.000000
26.385242 29.000000
26.404724 37.000000
26.424207 38.000000
26.443689 29.000000
26.463171 58.000000
26.482654 55.000000
26.502136 56.000000
26.521619 55.000000
26.541101 46.000000
26.560583 39.000000
26.580066 38.000000
26.599548 47.000000
26.619030 48.000000
26.638513 56.000000
26.657995 62.000000
26.677478 76.000000
26.696960 70.000000
26.716442 49.000000
26.735925 47.000000
26.755407 48.000000
26.774889 46.000000
26.794372 38.000000
26.813854 41.000000
26.833336 32.000000
26.852819 45.000000
26.872301 27.000000
26.891784 35.000000
26.911266 38.000000
26.930748 41.000000
26.950231 40.000000
26.969713 44.000000
26.989195 46.000000
27.008678 35.000000
27.028160 36.000000
27.047643 38.000000
27.067125 38.000000
27.086607 31.000000
27.106090 29.000000
27.125572 47.000000
27.145054 25.000000
27.164537 40.000000
27.184019 33.000000
27.203501 51.000000
27.222984 39.000000
27.242466 42.000000
27.261949 33.000000
27.281431 38.000000
27.300913 36.000000
27.320396 46.000000
27.339878 38.000000
27.359360 27.000000
27.378843 29.000000
27.398325 30.000000
27.417808 19.000000
27.437290 44.000000
27.456772 36.000000
27.476255 29.000000
27.495737 36.000000
27.515219 27.000000
27.534702 42.000000
27.554184 24.000000
27.573667 39.000000
27.593149 27.000000
27.612631 46.000000
27.632114 30.000000
27.651596 32.000000
27.671078 31.000000
27.690561 40.000000
27.710043 34.000000
27.729525 38.000000
27.749008 33.000000
27.768490 45.000000
27.787973 33.000000
27.807455 28.000000
27.826937 40.000000
27.846420 36.000000
27.865902 39.000000
27.885384 19.000000
27.904867 31.000000
27.924349 47.000000
27.943832 29.000000
27.963314 31.000000
27.982796 37.000000
28.002279 39.000000
28.021761 40.000000
28.041243 38.000000
28.060726 45.000000
28.080208 25.000000
28.099690 24.000000
28.119173 29.000000
28.138655 34.000000
28.158138 28.000000
28.177620 30.000000
28.197102 32.000000
28.216585 36.000000
28.236067 27.000000
28.255549 36.000000
28.275032 46.000000
28.294514 43.000000
28.313997 24.000000
28.333479 35.000000
28.352961 41.000000
28.372444 50.000000
28.391926 57.000000
28.411408 51.000000
28.430891 65.000000
28.450373 50.000000
28.469855 65.000000
28.489338 56.000000
28.508820 55.000000
28.528303 65.000000
28.547785 59.000000
28.567267 50.000000
28.586750 71.000000
28.606232 68.000000
28.625714 79.000000
28.645197 66.000000
28.664679 57.000000
28.684162 61.000000
28.703644 54.000000
28.723126 54.000000
28.742609 50.000000
28.762091 62.000000
28.781573 60.000000
28.801056 69.000000
28.820538 61.000000
28.840020 74.000000
28.859503 74.000000
28.878985 86.000000
28.898468 68.000000
28.917950 74.000000
28.937432 80.000000
28.956915 74.000000
28.976397 88.000000
28.995879 92.000000
29.015362 79.000000
29.034844 93.000000
29.054327 104.000000
29.073809 110.000000
29.093291 130.000000
29.112774 149.000000
29.132256 152.000000
29.151738 152.000000
29.171221 199.000000
29.190703 209.000000
29.210185 254.000000
29.229668 354.000000
29.249150 491.000000
29.268633 598.000000
29.288115 893.000000
29.307597 1473.000000
29.327080 2742.000000
29.346562 5178.000000
29.366044 8120.000000
29.385527 10191.000000
29.405009 9211.000000
29.424492 6906.000000
29.443974 6004.000000
29.463456 5605.000000
29.482939 4147.000000
29.502421 2227.000000
29.521903 1113.000000
29.541386 646.000000
29.560868 428.000000
29.580351 352.000000
29.599833 278.000000
29.619315 232.000000
29.638798 198.000000
29.658280 179.000000
29.677762 160.000000
29.697245 149.000000
29.716727 140.000000
29.736209 102.000000
29.755692 100.000000
29.775174 89.000000
29.794657 88.000000
29.814139 83.000000
29.833621 66.000000
29.853104 70.000000
29.872586 75.000000
29.892068 62.000000
29.911551 74.000000
29.931033 78.000000
29.950516 66.000000
29.969998 61.000000
29.989480 59.000000
30.008963 63.000000
30.028445 50.000000
30.047927 57.000000
30.067410 48.000000
30.086892 53.000000
30.106374 69.000000
30.125857 62.000000
30.145339 58.000000
30.164822 52.000000
30.184304 65.000000
30.203786 47.000000
30.223269 38.000000
30.242751 53.000000
30.262233 49.000000
30.281716 61.000000
30.301198 57.000000
30.320681 46.000000
30.340163 52.000000
30.359645 57.000000
30.379128 52.000000
30.398610 56.000000
30.418092 56.000000
30.437575 48.000000
30.457057 45.000000
30.476539 41.000000
30.496022 46.000000
30.515504 50.000000
30.534987 52.000000
30.554469 49.000000
30.573951 43.000000
30.593434 43.000000
30.612916 49.000000
30.632398 45.000000
30.651881 50.000000
30.671363 49.000000
30.690846 47.000000
30.710328 52.000000
30.729810 42.000000
30.749293 45.000000
30.768775 44.000000
30.788257 49.000000
30.807740 42.000000
30.827222 48.000000
30.846704 37.000000
30.866187 39.000000
30.885669 48.000000
30.905152 50.000000
30.924634 38.000000
30.944116 49.000000
30.963599 52.000000
30.983081 47.000000
31.002563 47.000000
31.022046 54.000000
31.041528 49.000000
31.061011 44.000000
31.080493 45.000000
31.099975 46.000000
31.119458 44.000000
31.138940 47.000000
31.158422 49.000000
31.177905 59.000000
31.197387 41.000000
31.216870 63.000000
31.236352 37.000000
31.255834 37.000000
31.275317 42.000000
31.294799 66.000000
31.314281 58.000000
31.333764 68.000000
31.353246 75.000000
31.372728 127.000000
31.392211 155.000000
31.411693 176.000000
31.431176 205.000000
31.450658 177.000000
31.470140 144.000000
31.489623 129.000000
31.509105 134.000000
31.528587 102.000000
31.548070 79.000000
31.567552 63.000000
31.587035 52.000000
31.606517 45.000000
31.625999 41.000000
31.645482 51.000000
31.664964 44.000000
31.684446 66.000000
31.703929 44.000000
31.723411 43.000000
31.742893 40.000000
31.762376 55.000000
31.781858 51.000000
31.801341 48.000000
31.820823 39.000000
31.840305 55.000000
31.859788 33.000000
31.879270 42.000000
31.898752 38.000000
31.918235 37.000000
31.937717 35.000000
31.957200 32.000000
31.976682 26.000000
31.996164 52.000000
32.015647 39.000000
32.035129 28.000000
32.054611 39.000000
32.074094 37.000000
32.093576 36.000000
32.113058 39.000000
32.132541 41.000000
32.152023 41.000000
32.171506 40.000000
32.190988 36.000000
32.210470 36.000000
32.229953 42.000000
32.249435 38.000000
32.268917 42.000000
32.288400 29.000000
32.307882 47.000000
32.327365 36.000000
32.346847 50.000000
32.366329 42.000000
32.385812 35.000000
32.405294 35.000000
32.424776 47.000000
32.444259 36.000000
32.463741 32.000000
32.483223 37.000000
32.502706 37.000000
32.522188 33.000000
32.541671 34.000000
32.561153 47.000000
32.580635 38.000000
32.600118 44.000000
32.619600 34.000000
32.639082 42.000000
32.658565 29.000000
32.678047 39.000000
32.697530 41.000000
32.717012 38.000000
32.736494 24.000000
32.755977 32.000000
32.775459 39.000000
32.794941 45.000000
32.814424 43.000000
32.833906 38.000000
32.853389 36.000000
32.872871 39.000000
32.892353 31.000000
32.911836 37.000000
32.931318 44.000000
32.950800 29.000000
32.970283 39.000000
32.989765 34.000000
33.009247 33.000000
33.028730 47.000000
33.048212 35.000000
33.067695 36.000000
33.087177 39.000000
33.106659 31.000000
33.126142 40.000000
33.145624 46.000000
33.165106 37.000000
33.184589 28.000000
33.204071 30.000000
33.223554 37.000000
33.243036 29.000000
33.262518 40.000000
33.282001 25.000000
33.301483 34.000000
33.320965 36.000000
33.340448 38.000000
33.359930 43.000000
33.379412 33.000000
33.398895 33.000000
33.418377 33.000000
33.437860 28.000000
33.457342 38.000000
33.476824 29.000000
33.496307 35.000000
33.515789 24.000000
33.535271 30.000000
33.554754 27.000000
33.574236 23.000000
33.593719 33.000000
33.613201 35.000000
33.632683 31.000000
33.652166 33.000000
33.671648 41.000000
33.691130 29.000000
33.710613 36.000000
33.730095 35.000000
33.749577 34.000000
33.769060 45.000000
33.788542 39.000000
33.808025 42.000000
33.827507 38.000000
33.846989 37.000000
33.866472 40.000000
33.885954 28.000000
33.905436 31.000000
33.924919 38.000000
33.944401 29.000000
33.963884 41.000000
33.983366 31.000000
34.002848 30.000000
34.022331 34.000000
34.041813 39.000000
34.061295 37.000000
34.080778 38.000000
34.100260 37.000000
34.119742 44.000000
34.139225 38.000000
34.158707 21.000000
34.178190 24.000000
34.197672 32.000000
34.217154 40.000000
34.236637 35.000000
34.256119 40.000000
34.275601 40.000000
34.295084 42.000000
34.314566 39.000000
34.334049 40.000000
34.353531 37.000000
34.373013 42.000000
34.392496 38.000000
34.411978 36.000000
34.431460 31.000000
34.450943 38.000000
34.470425 26.000000
34.489908 33.000000
34.509390 35.000000
34.528872 42.000000
34.548355 36.000000
34.567837 31.000000
34.587319 38.000000
34.606802 33.000000
34.626284 25.000000
34.645766 29.000000
34.665249 23.000000
34.684731 49.000000
34.704214 31.000000
34.723696 24.000000
34.743178 43.000000
34.762661 40.000000
34.782143 30.000000
34.801625 37.000000
34.821108 27.000000
34.840590 39.000000
34.860073 32.000000
34.879555 32.000000
34.899037 36.000000
34.918520 36.000000
34.938002 44.000000
34.957484 31.000000
34.976967 30.000000
34.996449 36.000000
35.015931 35.000000
35.035414 24.000000
35.054896 40.000000
35.074379 29.000000
35.093861 28.000000
35.113343 30.000000
35.132826 43.000000
35.152308 35.000000
35.171790 31.000000
35.191273 37.000000
35.210755 29.000000
35.230238 31.000000
35.249720 33.000000
35.269202 35.000000
35.288685 31.000000
35.308167 26.000000
35.327649 33.000000
35.347132 33.000000
35.366614 41.000000
35.386096 24.000000
35.405579 22.000000
35.425061 35.000000
35.444544 46.000000
35.464026 34.000000
35.483508 30.000000
35.502991 35.000000
35.522473 26.000000
35.541955 38.000000
35.561438 42.000000
35.580920 24.000000
35.600403 38.000000
35.619885 46.000000
35.639367 49.000000
35.658850 40.000000
35.678332 43.000000
35.697814 39.000000
35.717297 55.000000
35.736779 36.000000
35.756261 49.000000
35.775744 43.000000
35.795226 60.000000
35.814709 79.000000
35.834191 83.000000
35.853673 98.000000
35.873156 133.000000
35.892638 235.000000
35.912120 312.000000
35.931603 482.000000
35.951085 578.000000
35.970568 547.000000
35.990050 429.000000
36.009532 323.000000
36.029015 340.000000
36.048497 318.000000
36.067979 271.000000
36.087462 211.000000
36.106944 138.000000
36.126426 97.000000
36.145909 67.000000
36.165391 62.000000
36.184874 52.000000
36.204356 53.000000
36.223838 63.000000
36.243321 47.000000
36.262803 41.000000
36.282285 35.000000
36.301768 39.000000
36.321250 45.000000
36.340733 42.000000
36.360215 39.000000
36.379697 32.000000
36.399180 22.000000
36.418662 38.000000
36.438144 39.000000
36.457627 27.000000
36.477109 37.000000
36.496592 47.000000
36.516074 19.000000
36.535556 27.000000
36.555039 35.000000
36.574521 29.000000
36.594003 33.000000
36.613486 30.000000
36.632968 26.000000
36.652450 34.000000
36.671933 31.000000
36.691415 27.000000
36.710898 31.000000
36.730380 40.000000
36.749862 23.000000
36.769345 32.000000
36.788827 32.000000
36.808309 30.000000
36.827792 26.000000
36.847274 33.000000
36.866757 38.000000
36.886239 33.000000
36.905721 37.000000
36.925204 30.000000
36.944686 21.000000
36.964168 24.000000
36.983651 25.000000
37.003133 24.000000
37.022615 37.000000
37.042098 19.000000
37.061580 24.000000
37.081063 31.000000
37.100545 36.000000
37.120027 30.000000
37.139510 24.000000
37.158992 43.000000
37.178474 28.000000
37.197957 27.000000
37.217439 28.000000
37.236922 24.000000
37.256404 37.000000
37.275886 31.000000
37.295369 31.000000
37.314851 30.000000
37.334333 30.000000
37.353816 24.000000
37.373298 35.000000
37.392780 27.000000
37.412263 23.000000
37.431745 31.000000
37.451228 33.000000
37.470710 31.000000
37.490192 29.000000
37.509675 20.000000
37.529157 23.000000
37.548639 28.000000
37.568122 27.000000
37.587604 28.000000
37.607087 41.000000
37.626569 27.000000
37.646051 35.000000
37.665534 28.000000
37.685016 16.000000
37.704498 26.000000
37.723981 32.000000
37.743463 31.000000
37.762945 33.000000
37.782428 33.000000
37.801910 25.000000
37.821393 27.000000
37.840875 28.000000
37.860357 27.000000
37.879840 21.000000
37.899322 27.000000
37.918804 39.000000
37.938287 28.000000
37.957769 26.000000
37.977252 42.000000
37.996734 30.000000
38.016216 33.000000
38.035699 33.000000
38.055181 39.000000
38.074663 27.000000
38.094146 25.000000
38.113628 32.000000
38.133111 29.000000
38.152593 27.000000
38.172075 26.000000
38.191558 21.000000
38.211040 26.000000
38.230522 36.000000
38.250005 32.000000
38.269487 27.000000
38.288969 35.000000
38.308452 30.000000
38.327934 25.000000
38.347417 33.000000
38.366899 25.000000
38.386381 39.000000
38.405864 42.000000
38.425346 33.000000
38.444828 42.000000
38.464311 27.000000
38.483793 28.000000
38.503276 28.000000
38.522758 28.000000
38.542240 39.000000
38.561723 27.000000
38.581205 28.000000
38.600687 30.000000
38.620170 30.000000
38.639652 27.000000
38.659134 24.000000
38.678617 27.000000
38.698099 23.000000
38.717582 35.000000
38.737064 45.000000
38.756546 44.000000
38.776029 34.000000
38.795511 39.000000
38.814993 28.000000
38.834476 31.000000
38.853958 28.000000
38.873441 29.000000
38.892923 38.000000
38.912405 31.000000
38.931888 37.000000
38.951370 35.000000
38.970852 34.000000
38.990335 33.000000
39.009817 42.000000
39.029299 37.000000
39.048782 33.000000
39.068264 44.000000
39.087747 35.000000
39.107229 43.000000
39.126711 48.000000
39.146194 45.000000
39.165676 53.000000
39.185158 70.000000
39.204641 52.000000
39.224123 85.000000
39.243606 104.000000
39.263088 106.000000
39.282570 154.000000
39.302053 200.000000
39.321535 288.000000
39.341017 473.000000
39.360500 683.000000
39.379982 1043.000000
39.399464 1093.000000
39.418947 955.000000
39.438429 712.000000
39.457912 669.000000
39.477394 643.000000
39.496876 632.000000
39.516359 543.000000
39.535841 371.000000
39.555323 244.000000
39.574806 149.000000
39.594288 149.000000
39.613771 119.000000
39.633253 88.000000
39.652735 64.000000
39.672218 66.000000
39.691700 58.000000
39.711182 49.000000
39.730665 42.000000
39.750147 54.000000
39.769630 46.000000
39.789112 41.000000
39.808594 42.000000
39.828077 48.000000
39.847559 44.000000
39.867041 40.000000
39.886524 41.000000
39.906006 39.000000
39.925488 46.000000
39.944971 36.000000
39.964453 40.000000
39.983936 37.000000
40.003418 33.000000
40.022900 34.000000
40.042383 41.000000
40.061865 37.000000
40.081347 31.000000
40.100830 29.000000
40.120312 23.000000
40.139795 33.000000
40.159277 21.000000
40.178759 29.000000
40.198242 22.000000
40.217724 29.000000
40.237206 24.000000
40.256689 28.000000
40.276171 36.000000
40.295653 44.000000
40.315136 21.000000
40.334618 30.000000
40.354101 22.000000
40.373583 40.000000
40.393065 33.000000
40.412548 28.000000
40.432030 25.000000
40.451512 31.000000
40.470995 26.000000
40.490477 30.000000
40.509960 28.000000
40.529442 26.000000
40.548924 41.000000
40.568407 28.000000
40.587889 33.000000
40.607371 30.000000
40.626854 24.000000
40.646336 25.000000
40.665818 16.000000
40.685301 24.000000
40.704783 28.000000
40.724266 28.000000
40.743748 27.000000
40.763230 29.000000
40.782713 21.000000
40.802195 29.000000
40.821677 21.000000
40.841160 35.000000
40.860642 28.000000
40.880125 32.000000
40.899607 18.000000
40.919089 30.000000
40.938572 26.000000
40.958054 27.000000
40.977536 37.000000
40.997019 23.000000
41.016501 25.000000
41.035983 25.000000
41.055466 32.000000
41.074948 26.000000
41.094431 38.000000
41.113913 30.000000
41.133395 29.000000
41.152878 28.000000
41.172360 36.000000
41.191842 18.000000
41.211325 32.000000
41.230807 37.000000
41.250290 27.000000
41.269772 34.000000
41.289254 32.000000
41.308737 24.000000
41.328219 28.000000
41.347701 32.000000
41.367184 21.000000
41.386666 29.000000
41.406149 28.000000
41.425631 36.000000
41.445113 29.000000
41.464596 26.000000
41.484078 33.000000
41.503560 25.000000
41.523043 36.000000
41.542525 30.000000
41.562007 30.000000
41.581490 24.000000
41.600972 29.000000
41.620455 31.000000
41.639937 40.000000
41.659419 36.000000
41.678902 21.000000
41.698384 27.000000
41.717866 28.000000
41.737349 34.000000
41.756831 31.000000
41.776314 32.000000
41.795796 18.000000
41.815278 25.000000
41.834761 41.000000
41.854243 28.000000
41.873725 36.000000
41.893208 26.000000
41.912690 26.000000
41.932172 26.000000
41.951655 28.000000
41.971137 27.000000
41.990620 23.000000
42.010102 25.000000
42.029584 31.000000
42.049067 27.000000
42.068549 34.000000
42.088031 31.000000
42.107514 29.000000
42.126996 34.000000
42.146479 28.000000
42.165961 26.000000
42.185443 31.000000
42.204926 32.000000
42.224408 27.000000
42.243890 42.000000
42.263373 36.000000
42.282855 34.000000
42.302337 35.000000
42.321820 20.000000
42.341302 34.000000
42.360785 28.000000
42.380267 29.000000
42.399749 43.000000
42.419232 38.000000
42.438714 34.000000
42.458196 35.000000
42.477679 28.000000
42.497161 30.000000
42.516644 29.000000
42.536126 30.000000
42.555608 31.000000
42.575091 23.000000
42.594573 35.000000
42.614055 25.000000
42.633538 26.000000
42.653020 28.000000
42.672502 30.000000
42.691985 30.000000
42.711467 35.000000
42.730950 33.000000
42.750432 33.000000
42.769914 27.000000
42.789397 32.000000
42.808879 31.000000
42.828361 27.000000
42.847844 44.000000
42.867326 47.000000
42.886809 39.000000
42.906291 47.000000
42.925773 58.000000
42.945256 45.000000
42.964738 59.000000
42.984220 54.000000
43.003703 82.000000
43.023185 97.000000
43.042667 128.000000
43.062150 148.000000
43.081632 263.000000
43.101115 459.000000
43.120597 669.000000
43.140079 845.000000
43.159562 785.000000
43.179044 622.000000
43.198526 497.000000
43.218009 444.000000
43.237491 463.000000
43.256974 482.000000
43.276456 445.000000
43.295938 357.000000
43.315421 178.000000
43.334903 136.000000
43.354385 97.000000
43.373868 85.000000
43.393350 57.000000
43.412833 68.000000
43.432315 50.000000
43.451797 52.000000
43.471280 44.000000
43.490762 40.000000
43.510244 46.000000
43.529727 44.000000
43.549209 37.000000
43.568691 42.000000
43.588174 53.000000
43.607656 37.000000
43.627139 28.000000
43.646621 43.000000
43.666103 26.000000
43.685586 40.000000
43.705068 36.000000
43.724550 34.000000
43.744033 36.000000
43.763515 32.000000
43.782998 35.000000
43.802480 39.000000
43.821962 32.000000
43.841445 30.000000
43.860927 23.000000
43.880409 35.000000
43.899892 36.000000
43.919374 24.000000
43.938856 26.000000
43.958339 29.000000
43.977821 28.000000
43.997304 31.000000
44.016786 34.000000
44.036268 33.000000
44.055751 25.000000
44.075233 26.000000
44.094715 36.000000
44.114198 31.000000
44.133680 35.000000
44.153163 19.000000
44.172645 19.000000
44.192127 43.000000
44.211610 23.000000
44.231092 34.000000
44.250574 26.000000
44.270057 32.000000
44.289539 39.000000
44.309021 23.000000
44.328504 16.000000
44.347986 34.000000
44.367469 24.000000
44.386951 27.000000
44.406433 21.000000
44.425916 35.000000
44.445398 27.000000
44.464880 32.000000
44.484363 29.000000
44.503845 31.000000
44.523328 35.000000
44.542810 21.000000
44.562292 22.000000
44.581775 21.000000
44.601257 31.000000
44.620739 27.000000
44.640222 27.000000
44.659704 21.000000
44.679186 31.000000
44.698669 27.000000
44.718151 28.000000
44.737634 29.000000
44.757116 23.000000
44.776598 30.000000
44.796081 25.000000
44.815563 39.000000
44.835045 28.000000
44.854528 24.000000
44.874010 32.000000
44.893493 22.000000
44.912975 26.000000
44.932457 25.000000
44.951940 22.000000
44.971422 35.000000
44.990904 21.000000
45.010387 25.000000
45.029869 27.000000
45.049352 26.000000
45.068834 35.000000
45.088316 23.000000
45.107799 32.000000
45.127281 30.000000
45.146763 34.000000
45.166246 30.000000
45.185728 36.000000
45.205210 26.000000
45.224693 20.000000
45.244175 27.000000
45.263658 28.000000
45.283140 24.000000
45.302622 22.000000
45.322105 25.000000
45.341587 22.000000
45.361069 23.000000
45.380552 37.000000
45.400034 29.000000
45.419517 28.000000
45.438999 20.000000
45.458481 22.000000
45.477964 23.000000
45.497446 33.000000
45.516928 23.000000
45.536411 23.000000
45.555893 26.000000
45.575375 31.000000
45.594858 26.000000
45.614340 27.000000
45.633823 27.000000
45.653305 28.000000
45.672787 19.000000
45.692270 29.000000
45.711752 24.000000
45.731234 29.000000
45.750717 31.000000
45.770199 36.000000
45.789682 35.000000
45.809164 32.000000
45.828646 34.000000
45.848129 32.000000
45.867611 39.000000
45.887093 41.000000
45.906576 27.000000
45.926058 25.000000
45.945540 29.000000
45.965023 30.000000
45.984505 27.000000
46.003988 40.000000
46.023470 36.000000
46.042952 34.000000
46.062435 31.000000
46.081917 30.000000
46.101399 35.000000
46.120882 35.000000
46.140364 34.000000
46.159847 27.000000
46.179329 28.000000
46.198811 29.000000
46.218294 25.000000
46.237776 34.000000
46.257258 38.000000
46.276741 30.000000
46.296223 34.000000
46.315705 35.000000
46.335188 35.000000
46.354670 30.000000
46.374153 35.000000
46.393635 34.000000
46.413117 31.000000
46.432600 34.000000
46.452082 39.000000
46.471564 24.000000
46.491047 39.000000
46.510529 32.000000
46.530012 25.000000
46.549494 30.000000
46.568976 34.000000
46.588459 38.000000
46.607941 32.000000
46.627423 43.000000
46.646906 41.000000
46.666388 37.000000
46.685871 23.000000
46.705353 38.000000
46.724835 42.000000
46.744318 46.000000
46.763800 46.000000
46.783282 47.000000
46.802765 52.000000
46.822247 43.000000
46.841729 54.000000
46.861212 42.000000
46.880694 46.000000
46.900177 38.000000
46.919659 68.000000
46.939141 73.000000
46.958624 55.000000
46.978106 66.000000
46.997588 97.000000
47.017071 105.000000
47.036553 101.000000
47.056036 180.000000
47.075518 202.000000
47.095000 263.000000
47.114483 242.000000
47.133965 216.000000
47.153447 193.000000
47.172930 185.000000
47.192412 188.000000
47.211894 182.000000
47.231377 189.000000
47.250859 164.000000
47.270342 138.000000
47.289824 149.000000
47.309306 169.000000
47.328789 152.000000
47.348271 179.000000
47.367753 215.000000
47.387236 287.000000
47.406718 373.000000
47.426201 533.000000
47.445683 702.000000
47.465165 970.000000
47.484648 1073.000000
47.504130 1155.000000
47.523612 1055.000000
47.543095 818.000000
47.562577 737.000000
47.582059 719.000000
47.601542 730.000000
47.621024 716.000000
47.640507 622.000000
47.659989 513.000000
47.679471 383.000000
47.698954 274.000000
47.718436 194.000000
47.737918 144.000000
47.757401 133.000000
47.776883 105.000000
47.796366 89.000000
47.815848 82.000000
47.835330 75.000000
47.854813 75.000000
47.874295 71.000000
47.893777 74.000000
47.913260 58.000000
47.932742 56.000000
47.952224 60.000000
47.971707 46.000000
47.991189 45.000000
48.010672 60.000000
48.030154 52.000000
48.049636 56.000000
48.069119 42.000000
48.088601 54.000000
48.108083 48.000000
48.127566 59.000000
48.147048 67.000000
48.166531 54.000000
48.186013 78.000000
48.205495 62.000000
48.224978 57.000000
48.244460 65.000000
48.263942 84.000000
48.283425 84.000000
48.302907 87.000000
48.322389 104.000000
48.341872 134.000000
48.361354 153.000000
48.380837 214.000000
48.400319 279.000000
48.419801 444.000000
48.439284 560.000000
48.458766 775.000000
48.478248 926.000000
48.497731 1026.000000
48.517213 928.000000
48.536696 802.000000
48.556178 649.000000
48.575660 585.000000
48.595143 589.000000
48.614625 580.000000
48.634107 590.000000
48.653590 489.000000
48.673072 349.000000
48.692555 267.000000
48.712037 184.000000
48.731519 130.000000
48.751002 107.000000
48.770484 91.000000
48.789966 91.000000
48.809449 61.000000
48.828931 72.000000
48.848413 53.000000
48.867896 53.000000
48.887378 47.000000
48.906861 55.000000
48.926343 54.000000
48.945825 48.000000
48.965308 54.000000
48.984790 51.000000
49.004272 41.000000
49.023755 44.000000
49.043237 36.000000
49.062720 43.000000
49.082202 31.000000
49.101684 33.000000
49.121167 36.000000
49.140649 42.000000
49.160131 38.000000
49.179614 36.000000
49.199096 27.000000
49.218578 40.000000
49.238061 38.000000
49.257543 34.000000
49.277026 37.000000
49.296508 26.000000
49.315990 34.000000
49.335473 41.000000
49.354955 33.000000
49.374437 28.000000
49.393920 26.000000
49.413402 34.000000
49.432885 34.000000
49.452367 33.000000
49.471849 30.000000
49.491332 36.000000
49.510814 25.000000
49.530296 31.000000
49.549779 31.000000
49.569261 31.000000
49.588743 31.000000
49.608226 20.000000
49.627708 33.000000
49.647191 30.000000
49.666673 40.000000
49.686155 31.000000
49.705638 24.000000
49.725120 36.000000
49.744602 25.000000
49.764085 34.000000
49.783567 31.000000
49.803050 23.000000
49.822532 30.000000
49.842014 29.000000
49.861497 24.000000
49.880979 33.000000
49.900461 30.000000
49.919944 28.000000
49.939426 35.000000
49.958908 32.000000
49.978391 35.000000
49.997873 18.000000
50.017356 30.000000
50.036838 26.000000
50.056320 22.000000
50.075803 46.000000
50.095285 30.000000
50.114767 36.000000
50.134250 31.000000
50.153732 45.000000
50.173215 22.000000
50.192697 19.000000
50.212179 31.000000
50.231662 28.000000
50.251144 23.000000
50.270626 36.000000
50.290109 27.000000
50.309591 21.000000
50.329074 18.000000
50.348556 31.000000
50.368038 25.000000
50.387521 23.000000
50.407003 26.000000
50.426485 28.000000
50.445968 34.000000
50.465450 38.000000
50.484932 21.000000
50.504415 22.000000
50.523897 25.000000
50.543380 31.000000
50.562862 22.000000
50.582344 31.000000
50.601827 26.000000
50.621309 25.000000
50.640791 19.000000
50.660274 36.000000
50.679756 17.000000
50.699239 34.000000
50.718721 24.000000
50.738203 25.000000
50.757686 30.000000
50.777168 24.000000
50.796650 23.000000
50.816133 24.000000
50.835615 21.000000
50.855097 36.000000
50.874580 37.000000
50.894062 26.000000
50.913545 22.000000
50.933027 23.000000
50.952509 22.000000
50.971992 24.000000
50.991474 23.000000
51.010956 26.000000
51.030439 19.000000
51.049921 24.000000
51.069404 27.000000
51.088886 26.000000
51.108368 25.000000
51.127851 24.000000
51.147333 26.000000
51.166815 20.000000
51.186298 21.000000
51.205780 27.000000
51.225262 24.000000
51.244745 25.000000
51.264227 26.000000
51.283710 30.000000
51.303192 28.000000
51.322674 19.000000
51.342157 22.000000
51.361639 30.000000
51.381121 38.000000
51.400604 33.000000
51.420086 31.000000
51.439569 38.000000
51.459051 28.000000
51.478533 23.000000
51.498016 25.000000
51.517498 23.000000
51.536980 31.000000
51.556463 28.000000
51.575945 22.000000
51.595427 26.000000
51.614910 29.000000
51.634392 24.000000
51.653875 24.000000
51.673357 34.000000
51.692839 26.000000
51.712322 23.000000
51.731804 23.000000
51.751286 40.000000
51.770769 18.000000
51.790251 24.000000
51.809734 24.000000
51.829216 27.000000
51.848698 18.000000
51.868181 34.000000
51.887663 20.000000
51.907145 26.000000
51.926628 18.000000
51.946110 29.000000
51.965593 22.000000
51.985075 25.000000
52.004557 24.000000
52.024040 23.000000
52.043522 28.000000
52.063004 27.000000
52.082487 27.000000
52.101969 16.000000
52.121451 23.000000
52.140934 26.000000
52.160416 32.000000
52.179899 19.000000
52.199381 27.000000
52.218863 24.000000
52.238346 24.000000
52.257828 20.000000
52.277310 22.000000
52.296793 29.000000
52.316275 23.000000
52.335758 25.000000
52.355240 23.000000
52.374722 25.000000
52.394205 16.000000
52.413687 20.000000
52.433169 24.000000
52.452652 31.000000
52.472134 23.000000
52.491616 16.000000
52.511099 25.000000
52.530581 23.000000
52.550064 24.000000
52.569546 16.000000
52.589028 27.000000
52.608511 24.000000
52.627993 23.000000
52.647475 24.000000
52.666958 26.000000
52.686440 17.000000
52.705923 22.000000
52.725405 14.000000
52.744887 27.000000
52.764370 26.000000
52.783852 25.000000
52.803334 19.000000
52.822817 34.000000
52.842299 33.000000
52.861781 24.000000
52.881264 28.000000
52.900746 20.000000
52.920229 18.000000
52.939711 16.000000
52.959193 16.000000
52.978676 30.000000
52.998158 21.000000
53.017640 20.000000
53.037123 27.000000
53.056605 26.000000
53.076088 25.000000
53.095570 25.000000
53.115052 31.000000
53.134535 24.000000
53.154017 18.000000
53.173499 23.000000
53.192982 25.000000
53.212464 18.000000
53.231946 22.000000
53.251429 26.000000
53.270911 27.000000
53.290394 19.000000
53.309876 19.000000
53.329358 20.000000
53.348841 16.000000
53.368323 22.000000
53.387805 23.000000
53.407288 24.000000
53.426770 18.000000
53.446253 25.000000
53.465735 23.000000
53.485217 23.000000
53.504700 32.000000
53.524182 21.000000
53.543664 19.000000
53.563147 27.000000
53.582629 20.000000
53.602112 25.000000
53.621594 31.000000
53.641076 30.000000
53.660559 24.000000
53.680041 26.000000
53.699523 18.000000
53.719006 28.000000
53.738488 26.000000
53.757970 23.000000
53.777453 28.000000
53.796935 15.000000
53.816418 13.000000
53.835900 22.000000
53.855382 29.000000
53.874865 23.000000
53.894347 20.000000
53.913829 18.000000
53.933312 25.000000
53.952794 22.000000
53.972277 25.000000
53.991759 26.000000
54.011241 25.000000
54.030724 17.000000
54.050206 29.000000
54.069688 17.000000
54.089171 20.000000
54.108653 24.000000
54.128135 15.000000
54.147618 23.000000
54.167100 26.000000
54.186583 21.000000
54.206065 24.000000
54.225547 26.000000
54.245030 25.000000
54.264512 24.000000
54.283994 22.000000
54.303477 36.000000
54.322959 25.000000
54.342442 19.000000
54.361924 25.000000
54.381406 25.000000
54.400889 22.000000
54.420371 28.000000
54.439853 27.000000
54.459336 21.000000
54.478818 31.000000
54.498300 22.000000
54.517783 15.000000
54.537265 23.000000
54.556748 20.000000
54.576230 34.000000
54.595712 26.000000
54.615195 17.000000
54.634677 25.000000
54.654159 29.000000
54.673642 20.000000
54.693124 18.000000
54.712607 20.000000
54.732089 27.000000
54.751571 19.000000
54.771054 18.000000
54.790536 26.000000
54.810018 21.000000
54.829501 17.000000
54.848983 22.000000
54.868465 25.000000
54.887948 24.000000
54.907430 21.000000
54.926913 24.000000
54.946395 15.000000
54.965877 28.000000
54.985360 25.000000
55.004842 28.000000
55.024324 18.000000
55.043807 30.000000
55.063289 28.000000
55.082772 23.000000
55.102254 24.000000
55.121736 17.000000
55.141219 27.000000
55.160701 13.000000
55.180183 22.000000
55.199666 23.000000
55.219148 16.000000
55.238630 25.000000
55.258113 31.000000
55.277595 21.000000
55.297078 25.000000
55.316560 26.000000
55.336042 19.000000
55.355525 20.000000
55.375007 31.000000
55.394489 22.000000
55.413972 23.000000
55.433454 16.000000
55.452937 12.000000
55.472419 20.000000
55.491901 26.000000
55.511384 26.000000
55.530866 17.000000
55.550348 30.000000
55.569831 26.000000
55.589313 18.000000
55.608796 18.000000
55.628278 12.000000
55.647760 31.000000
55.667243 21.000000
55.686725 24.000000
55.706207 24.000000
55.725690 15.000000
55.745172 31.000000
55.764654 23.000000
55.784137 17.000000
55.803619 25.000000
55.823102 31.000000
55.842584 18.000000
55.862066 21.000000
55.881549 24.000000
55.901031 20.000000
55.920513 29.000000
55.939996 12.000000
55.959478 29.000000
55.978961 24.000000
55.998443 22.000000
56.017925 22.000000
56.037408 19.000000
56.056890 29.000000
56.076372 25.000000
56.095855 26.000000
56.115337 24.000000
56.134819 22.000000
56.154302 28.000000
56.173784 22.000000
56.193267 29.000000
56.212749 25.000000
56.232231 25.000000
56.251714 28.000000
56.271196 32.000000
56.290678 19.000000
56.310161 33.000000
56.329643 28.000000
56.349126 39.000000
56.368608 30.000000
56.388090 39.000000
56.407573 33.000000
56.427055 50.000000
56.446537 53.000000
56.466020 62.000000
56.485502 74.000000
56.504984 88.000000
56.524467 138.000000
56.543949 158.000000
56.563432 157.000000
56.582914 159.000000
56.602396 128.000000
56.621879 91.000000
56.641361 85.000000
56.660843 98.000000
56.680326 84.000000
56.699808 95.000000
56.719291 83.000000
56.738773 75.000000
56.758255 73.000000
56.777738 73.000000
56.797220 29.000000
56.816702 34.000000
56.836185 28.000000
56.855667 27.000000
56.875149 25.000000
56.894632 26.000000
56.914114 36.000000
56.933597 24.000000
56.953079 29.000000
56.972561 27.000000
56.992044 32.000000
57.011526 37.000000
57.031008 28.000000
57.050491 33.000000
57.069973 32.000000
57.089456 29.000000
57.108938 42.000000
57.128420 33.000000
57.147903 34.000000
57.167385 43.000000
57.186867 40.000000
57.206350 38.000000
57.225832 56.000000
57.245315 72.000000
57.264797 69.000000
57.284279 94.000000
57.303762 96.000000
57.323244 143.000000
57.342726 184.000000
57.362209 202.000000
57.381691 237.000000
57.401173 240.000000
57.420656 244.000000
57.440138 203.000000
57.459621 192.000000
57.479103 154.000000
57.498585 136.000000
57.518068 156.000000
57.537550 183.000000
57.557032 156.000000
57.576515 143.000000
57.595997 111.000000
57.615480 83.000000
57.634962 72.000000
57.654444 68.000000
57.673927 65.000000
57.693409 59.000000
57.712891 48.000000
57.732374 36.000000
57.751856 35.000000
57.771338 31.000000
57.790821 40.000000
57.810303 37.000000
57.829786 29.000000
57.849268 32.000000
57.868750 33.000000
57.888233 30.000000
57.907715 23.000000
57.927197 39.000000
57.946680 36.000000
57.966162 38.000000
57.985645 36.000000
58.005127 50.000000
58.024609 69.000000
58.044092 60.000000
58.063574 72.000000
58.083056 62.000000
58.102539 60.000000
58.122021 47.000000
58.141503 60.000000
58.160986 38.000000
58.180468 37.000000
58.199951 54.000000
58.219433 55.000000
58.238915 42.000000
58.258398 44.000000
58.277880 39.000000
58.297362 34.000000
58.316845 20.000000
58.336327 25.000000
58.355810 28.000000
58.375292 24.000000
58.394774 20.000000
58.414257 19.000000
58.433739 19.000000
58.453221 28.000000
58.472704 25.000000
58.492186 19.000000
58.511668 24.000000
58.531151 33.000000
58.550633 22.000000
58.570116 26.000000
58.589598 21.000000
58.609080 33.000000
58.628563 32.000000
58.648045 28.000000
58.667527 20.000000
58.687010 26.000000
58.706492 31.000000
58.725975 28.000000
58.745457 22.000000
58.764939 16.000000
58.784422 20.000000
58.803904 22.000000
58.823386 19.000000
58.842869 20.000000
58.862351 31.000000
58.881834 15.000000
58.901316 18.000000
58.920798 30.000000
58.940281 30.000000
58.959763 19.000000
58.979245 20.000000
58.998728 21.000000
59.018210 22.000000
59.037692 19.000000
59.057175 27.000000
59.076657 16.000000
59.096140 23.000000
59.115622 31.000000
59.135104 17.000000
59.154587 26.000000
59.174069 22.000000
59.193551 27.000000
59.213034 11.000000
59.232516 28.000000
59.251999 22.000000
59.271481 24.000000
59.290963 27.000000
59.310446 22.000000
59.329928 20.000000
59.349410 25.000000
59.368893 24.000000
59.388375 19.000000
59.407857 26.000000
59.427340 15.000000
59.446822 23.000000
59.466305 14.000000
59.485787 28.000000
59.505269 25.000000
59.524752 24.000000
59.544234 21.000000
59.563716 27.000000
59.583199 15.000000
59.602681 25.000000
59.622164 31.000000
59.641646 17.000000
59.661128 25.000000
59.680611 22.000000
59.700093 19.000000
59.719575 29.000000
59.739058 32.000000
59.758540 24.000000
59.778022 21.000000
59.797505 18.000000
59.816987 19.000000
59.836470 28.000000
59.855952 27.000000
59.875434 22.000000
59.894917 24.000000
59.914399 37.000000
59.933881 36.000000
59.953364 36.000000
59.972846 33.000000
59.992329 31.000000
60.011811 23.000000
60.031293 24.000000
60.050776 26.000000
60.070258 32.000000
60.089740 25.000000
60.109223 33.000000
60.128705 34.000000
60.148187 31.000000
60.167670 22.000000
60.187152 22.000000
60.206635 28.000000
60.226117 24.000000
60.245599 26.000000
60.265082 22.000000
60.284564 29.000000
60.304046 32.000000
60.323529 22.000000
60.343011 27.000000
60.362494 27.000000
60.381976 33.000000
60.401458 26.000000
60.420941 30.000000
60.440423 31.000000
60.459905 35.000000
60.479388 38.000000
60.498870 47.000000
60.518352 53.000000
60.537835 47.000000
60.557317 64.000000
60.576800 94.000000
60.596282 125.000000
60.615764 194.000000
60.635247 193.000000
60.654729 238.000000
60.674211 230.000000
60.693694 160.000000
60.713176 150.000000
60.732659 101.000000
60.752141 115.000000
60.771623 121.000000
60.791106 134.000000
60.810588 134.000000
60.830070 133.000000
60.849553 161.000000
60.869035 114.000000
60.888518 102.000000
60.908000 78.000000
60.927482 103.000000
60.946965 132.000000
60.966447 169.000000
60.985929 177.000000
61.005412 198.000000
61.024894 113.000000
61.044376 112.000000
61.063859 108.000000
61.083341 95.000000
61.102824 77.000000
61.122306 98.000000
61.141788 94.000000
61.161271 102.000000
61.180753 95.000000
61.200235 90.000000
61.219718 71.000000
61.239200 75.000000
61.258683 75.000000
61.278165 79.000000
61.297647 88.000000
61.317130 125.000000
61.336612 137.000000
61.356094 157.000000
61.375577 128.000000
61.395059 136.000000
61.414541 122.000000
61.434024 114.000000
61.453506 99.000000
61.472989 84.000000
61.492471 104.000000
61.511953 97.000000
61.531436 95.000000
61.550918 87.000000
61.570400 64.000000
61.589883 61.000000
61.609365 42.000000
61.628848 38.000000
61.648330 32.000000
61.667812 43.000000
61.687295 38.000000
61.706777 23.000000
61.726259 29.000000
61.745742 25.000000
61.765224 26.000000
61.784706 28.000000
61.804189 32.000000
61.823671 23.000000
61.843154 23.000000
61.862636 24.000000
61.882118 19.000000
61.901601 22.000000
61.921083 28.000000
61.940565 26.000000
61.960048 27.000000
61.979530 20.000000
61.999013 26.000000
62.018495 29.000000
62.037977 22.000000
62.057460 25.000000
62.076942 28.000000
62.096424 22.000000
62.115907 14.000000
62.135389 29.000000
62.154871 20.000000
62.174354 24.000000
62.193836 24.000000
62.213319 19.000000
62.232801 17.000000
62.252283 18.000000
62.271766 21.000000
62.291248 19.000000
62.310730 25.000000
62.330213 32.000000
62.349695 19.000000
62.369178 21.000000
62.388660 22.000000
62.408142 27.000000
62.427625 13.000000
62.447107 19.000000
62.466589 13.000000
62.486072 13.000000
62.505554 24.000000
62.525037 26.000000
62.544519 21.000000
62.564001 25.000000
62.583484 24.000000
62.602966 26.000000
62.622448 17.000000
62.641931 27.000000
62.661413 26.000000
62.680895 18.000000
62.700378 27.000000
62.719860 24.000000
62.739343 25.000000
62.758825 27.000000
62.778307 19.000000
62.797790 25.000000
62.817272 36.000000
62.836754 25.000000
62.856237 35.000000
62.875719 34.000000
62.895202 30.000000
62.914684 35.000000
62.934166 36.000000
62.953649 65.000000
62.973131 62.000000
62.992613 63.000000
63.012096 80.000000
63.031578 98.000000
63.051060 99.000000
63.070543 88.000000
63.090025 60.000000
63.109508 70.000000
63.128990 53.000000
63.148472 49.000000
63.167955 58.000000
63.187437 64.000000
63.206919 58.000000
63.226402 59.000000
63.245884 56.000000
63.265367 49.000000
63.284849 44.000000
63.304331 36.000000
63.323814 28.000000
63.343296 21.000000
63.362778 27.000000
63.382261 30.000000
63.401743 23.000000
63.421225 24.000000
63.440708 26.000000
63.460190 26.000000
63.479673 31.000000
63.499155 20.000000
63.518637 18.000000
63.538120 19.000000
63.557602 17.000000
63.577084 24.000000
63.596567 25.000000
63.616049 28.000000
63.635532 22.000000
63.655014 19.000000
63.674496 19.000000
63.693979 23.000000
63.713461 16.000000
63.732943 27.000000
63.752426 23.000000
63.771908 17.000000
63.791390 19.000000
63.810873 20.000000
63.830355 25.000000
63.849838 25.000000
63.869320 16.000000
63.888802 19.000000
63.908285 27.000000
63.927767 23.000000
63.947249 21.000000
63.966732 16.000000
63.986214 26.000000
64.005697 24.000000
64.025179 20.000000
64.044661 18.000000
64.064144 17.000000
64.083626 17.000000
64.103108 17.000000
64.122591 36.000000
64.142073 19.000000
64.161556 29.000000
64.181038 15.000000
64.200520 19.000000
64.220003 19.000000
64.239485 33.000000
64.258967 17.000000
64.278450 21.000000
64.297932 34.000000
64.317414 26.000000
64.336897 30.000000
64.356379 35.000000
64.375862 37.000000
64.395344 37.000000
64.414826 29.000000
64.434309 29.000000
64.453791 31.000000
64.473273 37.000000
64.492756 43.000000
64.512238 49.000000
64.531721 66.000000
64.551203 85.000000
64.570685 91.000000
64.590168 131.000000
64.609650 159.000000
64.629132 204.000000
64.648615 247.000000
64.668097 244.000000
64.687579 215.000000
64.707062 172.000000
64.726544 136.000000
64.746027 152.000000
64.765509 103.000000
64.784991 135.000000
64.804474 156.000000
64.823956 155.000000
64.843438 145.000000
64.862921 138.000000
64.882403 114.000000
64.901886 79.000000
64.921368 71.000000
64.940850 47.000000
64.960333 44.000000
64.979815 51.000000
64.999297 39.000000
65.018780 27.000000
65.038262 22.000000
65.057744 25.000000
65.077227 22.000000
65.096709 29.000000
65.116192 25.000000
65.135674 31.000000
65.155156 31.000000
65.174639 20.000000
65.194121 15.000000
65.213603 35.000000
65.233086 28.000000
65.252568 28.000000
65.272051 32.000000
65.291533 26.000000
65.311015 28.000000
65.330498 38.000000
65.349980 28.000000
65.369462 34.000000
65.388945 37.000000
65.408427 27.000000
65.427909 30.000000
65.447392 46.000000
65.466874 55.000000
65.486357 58.000000
65.505839 75.000000
65.525321 87.000000
65.544804 112.000000
65.564286 126.000000
65.583768 141.000000
65.603251 147.000000
65.622733 165.000000
65.642216 143.000000
65.661698 143.000000
65.681180 107.000000
65.700663 113.000000
65.720145 100.000000
65.739627 105.000000
65.759110 92.000000
65.778592 99.000000
65.798075 95.000000
65.817557 110.000000
65.837039 68.000000
65.856522 73.000000
65.876004 65.000000
65.895486 51.000000
65.914969 49.000000
65.934451 35.000000
65.953933 34.000000
65.973416 33.000000
65.992898 42.000000
66.012381 31.000000
66.031863 25.000000
66.051345 19.000000
66.070828 26.000000
66.090310 21.000000
66.109792 20.000000
66.129275 20.000000
66.148757 30.000000
66.168240 13.000000
66.187722 30.000000
66.207204 25.000000
66.226687 22.000000
66.246169 24.000000
66.265651 15.000000
66.285134 15.000000
66.304616 25.000000
66.324098 19.000000
66.343581 22.000000
66.363063 19.000000
66.382546 25.000000
66.402028 20.000000
66.421510 15.000000
66.440993 20.000000
66.460475 24.000000
66.479957 18.000000
66.499440 21.000000
66.518922 21.000000
66.538405 28.000000
66.557887 14.000000
66.577369 25.000000
66.596852 15.000000
66.616334 23.000000
66.635816 20.000000
66.655299 21.000000
66.674781 27.000000
66.694263 19.000000
66.713746 26.000000
66.733228 15.000000
66.752711 22.000000
66.772193 17.000000
66.791675 17.000000
66.811158 26.000000
66.830640 18.000000
66.850122 14.000000
66.869605 13.000000
66.889087 24.000000
66.908570 30.000000
66.928052 18.000000
66.947534 21.000000
66.967017 31.000000
66.986499 20.000000
67.005981 21.000000
67.025464 14.000000
67.044946 30.000000
67.064428 13.000000
67.083911 21.000000
67.103393 19.000000
67.122876 16.000000
67.142358 15.000000
67.161840 17.000000
67.181323 22.000000
67.200805 19.000000
67.220287 25.000000
67.239770 23.000000
67.259252 15.000000
67.278735 24.000000
67.298217 16.000000
67.317699 17.000000
67.337182 15.000000
67.356664 15.000000
67.376146 22.000000
67.395629 17.000000
67.415111 25.000000
67.434593 15.000000
67.454076 28.000000
67.473558 13.000000
67.493041 21.000000
67.512523 25.000000
67.532005 16.000000
67.551488 23.000000
67.570970 25.000000
67.590452 25.000000
67.609935 18.000000
67.629417 24.000000
67.648900 20.000000
67.668382 10.000000
67.687864 19.000000
67.707347 23.000000
67.726829 20.000000
67.746311 17.000000
67.765794 23.000000
67.785276 19.000000
67.804759 19.000000
67.824241 15.000000
67.843723 16.000000
67.863206 25.000000
67.882688 16.000000
67.902170 22.000000
67.921653 15.000000
67.941135 14.000000
67.960617 23.000000
67.980100 19.000000
67.999582 20.000000
68.019065 17.000000
68.038547 16.000000
68.058029 17.000000
68.077512 14.000000
68.096994 17.000000
68.116476 12.000000
68.135959 27.000000
68.155441 15.000000
68.174924 21.000000
68.194406 22.000000
68.213888 23.000000
68.233371 19.000000
68.252853 10.000000
68.272335 18.000000
68.291818 16.000000
68.311300 16.000000
68.330782 19.000000
68.350265 26.000000
68.369747 27.000000
68.389230 13.000000
68.408712 25.000000
68.428194 17.000000
68.447677 20.000000
68.467159 20.000000
68.486641 17.000000
68.506124 14.000000
68.525606 19.000000
68.545089 16.000000
68.564571 19.000000
68.584053 17.000000
68.603536 18.000000
68.623018 20.000000
68.642500 20.000000
68.661983 16.000000
68.681465 19.000000
68.700947 28.000000
68.720430 15.000000
68.739912 17.000000
68.759395 19.000000
68.778877 28.000000
68.798359 15.000000
68.817842 17.000000
68.837324 23.000000
68.856806 27.000000
68.876289 21.000000
68.895771 18.000000
68.915254 25.000000
68.934736 23.000000
68.954218 22.000000
68.973701 24.000000
68.993183 28.000000
69.012665 30.000000
69.032148 23.000000
69.051630 22.000000
69.071112 41.000000
69.090595 47.000000
69.110077 49.000000
69.129560 73.000000
69.149042 73.000000
69.168524 94.000000
69.188007 103.000000
69.207489 92.000000
69.226971 87.000000
69.246454 55.000000
69.265936 48.000000
69.285419 44.000000
69.304901 61.000000
69.324383 51.000000
69.343866 50.000000
69.363348 69.000000
69.382830 54.000000
69.402313 54.000000
69.421795 56.000000
69.441278 36.000000
69.460760 38.000000
69.480242 34.000000
69.499725 26.000000
69.519207 24.000000
69.538689 23.000000
69.558172 18.000000
69.577654 26.000000
69.597136 17.000000
69.616619 13.000000
69.636101 27.000000
69.655584 20.000000
69.675066 23.000000
69.694548 29.000000
69.714031 21.000000
69.733513 18.000000
69.752995 20.000000
69.772478 26.000000
69.791960 22.000000
69.811443 17.000000
69.830925 21.000000
69.850407 24.000000
69.869890 27.000000
69.889372 26.000000
69.908854 33.000000
69.928337 21.000000
69.947819 14.000000
69.967301 24.000000
69.986784 19.000000
70.006266 32.000000
70.025749 27.000000
