4.000000 34.000000
4.019482 30.000000
4.038965 47.000000
4.058447 47.000000
4.077929 41.000000
4.097412 40.000000
4.116894 31.000000
4.136377 31.000000
4.155859 27.000000
4.175341 36.000000
4.194824 42.000000
4.214306 31.000000
4.233788 40.000000
4.253271 35.000000
4.272753 36.000000
4.292236 39.000000
4.311718 31.000000
4.331200 27.000000
4.350683 25.000000
4.370165 33.000000
4.389647 39.000000
4.409130 31.000000
4.428612 31.000000
4.448094 28.000000
4.467577 34.000000
4.487059 30.000000
4.506542 27.000000
4.526024 29.000000
4.545506 29.000000
4.564989 35.000000
4.584471 15.000000
4.603953 28.000000
4.623436 25.000000
4.642918 30.000000
4.662401 18.000000
4.681883 25.000000
4.701365 28.000000
4.720848 30.000000
4.740330 14.000000
4.759812 19.000000
4.779295 20.000000
4.798777 20.000000
4.818259 20.000000
4.837742 27.000000
4.857224 21.000000
4.876707 28.000000
4.896189 17.000000
4.915671 19.000000
4.935154 20.000000
4.954636 21.000000
4.974118 20.000000
4.993601 24.000000
5.013083 18.000000
5.032566 16.000000
5.052048 19.000000
5.071530 12.000000
5.091013 18.000000
5.110495 17.000000
5.129977 22.000000
5.149460 24.000000
5.168942 20.000000
5.188425 23.000000
5.207907 21.000000
5.227389 17.000000
5.246872 19.000000
5.266354 24.000000
5.285836 19.000000
5.305319 14.000000
5.324801 21.000000
5.344283 14.000000
5.363766 10.000000
5.383248 13.000000
5.402731 16.000000
5.422213 15.000000
5.441695 18.000000
5.461178 14.000000
5.480660 10.000000
5.500142 18.000000
5.519625 14.000000
5.539107 12.000000
5.558590 20.000000
5.578072 16.000000
5.597554 11.000000
5.617037 11.000000
5.636519 13.000000
5.656001 16.000000
5.675484 16.000000
5.694966 15.000000
5.714448 18.000000
5.733931 15.000000
5.753413 17.000000
5.772896 17.000000
5.792378 13.000000
5.811860 14.000000
5.831343 18.000000
5.850825 16.000000
5.870307 20.000000
5.889790 16.000000
5.909272 15.000000
5.928755 8.000000
5.948237 12.000000
5.967719 15.000000
5.987202 9.000000
6.006684 17.000000
6.026166 17.000000
6.045649 20.000000
6.065131 9.000000
6.084613 7.000000
6.104096 16.000000
6.123578 10.000000
6.143061 17.000000
6.162543 7.000000
6.182025 10.000000
6.201508 17.000000
6.220990 14.000000
6.240472 9.000000
6.259955 8.000000
6.279437 10.000000
6.298920 7.000000
6.318402 14.000000
6.337884 17.000000
6.357367 15.000000
6.376849 9.000000
6.396331 11.000000
6.415814 12.000000
6.435296 10.000000
6.454778 17.000000
6.474261 9.000000
6.493743 10.000000
6.513226 10.000000
6.532708 8.000000
6.552190 14.000000
6.571673 12.000000
6.591155 12.000000
6.610637 9.000000
6.630120 15.000000
6.649602 8.000000
6.669085 16.000000
6.688567 12.000000
6.708049 5.000000
6.727532 13.000000
6.747014 12.000000
6.766496 4.000000
6.785979 5.000000
6.805461 14.000000
6.824944 10.000000
6.844426 6.000000
6.863908 8.000000
6.883391 9.000000
6.902873 7.000000
6.922355 12.000000
6.941838 12.000000
6.961320 10.000000
6.980802 12.000000
7.000285 7.000000
7.019767 3.000000
7.039250 11.000000
7.058732 8.000000
7.078214 14.000000
7.097697 14.000000
7.117179 4.000000
7.136661 9.000000
7.156144 7.000000
7.175626 3.000000
7.195109 9.000000
7.214591 4.000000
7.234073 13.000000
7.253556 9.000000
7.273038 9.000000
7.292520 9.000000
7.312003 12.000000
7.331485 6.000000
7.350967 8.000000
7.370450 7.000000
7.389932 10.000000
7.409415 9.000000
7.428897 5.000000
7.448379 6.000000
7.467862 10.000000
7.487344 9.000000
7.506826 10.000000
7.526309 10.000000
7.545791 5.000000
7.565274 9.000000
7.584756 9.000000
7.604238 5.000000
7.623721 10.000000
7.643203 8.000000
7.662685 12.000000
7.682168 8.000000
7.701650 7.000000
7.721132 8.000000
7.740615 8.000000
7.760097 10.000000
7.779580 11.000000
7.799062 5.000000
7.818544 7.000000
7.838027 11.000000
7.857509 11.000000
7.876991 4.000000
7.896474 8.000000
7.915956 8.000000
7.935439 5.000000
7.954921 14.000000
7.974403 10.000000
7.993886 6.000000
8.013368 8.000000
8.032850 12.000000
8.052333 8.000000
8.071815 8.000000
8.091297 7.000000
8.110780 9.000000
8.130262 12.000000
8.149745 12.000000
8.169227 6.000000
8.188709 7.000000
8.208192 10.000000
8.227674 10.000000
8.247156 6.000000
8.266639 12.000000
8.286121 8.000000
8.305604 4.000000
8.325086 5.000000
8.344568 9.000000
8.364051 11.000000
8.383533 8.000000
8.403015 9.000000
8.422498 9.000000
8.441980 10.000000
8.461463 7.000000
8.480945 10.000000
8.500427 9.000000
8.519910 10.000000
8.539392 9.000000
8.558874 5.000000
8.578357 8.000000
8.597839 8.000000
8.617321 10.000000
8.636804 9.000000
8.656286 6.000000
8.675769 7.000000
8.695251 9.000000
8.714733 5.000000
8.734216 7.000000
8.753698 8.000000
8.773180 6.000000
8.792663 9.000000
8.812145 12.000000
8.831628 5.000000
8.851110 6.000000
8.870592 6.000000
8.890075 7.000000
8.909557 8.000000
8.929039 10.000000
8.948522 9.000000
8.968004 8.000000
8.987486 8.000000
9.006969 5.000000
9.026451 7.000000
9.045934 7.000000
9.065416 6.000000
9.084898 8.000000
9.104381 11.000000
9.123863 12.000000
9.143345 10.000000
9.162828 9.000000
9.182310 10.000000
9.201793 4.000000
9.221275 6.000000
9.240757 4.000000
9.260240 8.000000
9.279722 6.000000
9.299204 9.000000
9.318687 7.000000
9.338169 4.000000
9.357651 9.000000
9.377134 13.000000
9.396616 6.000000
9.416099 11.000000
9.435581 10.000000
9.455063 8.000000
9.474546 6.000000
9.494028 12.000000
9.513510 4.000000
9.532993 11.000000
9.552475 13.000000
9.571958 9.000000
9.591440 12.000000
9.610922 5.000000
9.630405 9.000000
9.649887 7.000000
9.669369 5.000000
9.688852 8.000000
9.708334 2.000000
9.727816 3.000000
9.747299 9.000000
9.766781 10.000000
9.786264 10.000000
9.805746 5.000000
9.825228 10.000000
9.844711 12.000000
9.864193 12.000000
9.883675 6.000000
9.903158 4.000000
9.922640 10.000000
9.942123 8.000000
9.961605 5.000000
9.981087 8.000000
10.000570 16.000000
10.020052 5.000000
10.039534 8.000000
10.059017 11.000000
10.078499 6.000000
10.097982 5.000000
10.117464 16.000000
10.136946 5.000000
10.156429 4.000000
10.175911 7.000000
10.195393 6.000000
10.214876 10.000000
10.234358 6.000000
10.253840 10.000000
10.273323 7.000000
10.292805 7.000000
10.312288 5.000000
10.331770 10.000000
10.351252 7.000000
10.370735 8.000000
10.390217 6.000000
10.409699 7.000000
10.429182 10.000000
10.448664 9.000000
10.468147 6.000000
10.487629 7.000000
10.507111 8.000000
10.526594 8.000000
10.546076 14.000000
10.565558 9.000000
10.585041 8.000000
10.604523 9.000000
10.624005 9.000000
10.643488 8.000000
10.662970 4.000000
10.682453 11.000000
10.701935 9.000000
10.721417 6.000000
10.740900 3.000000
10.760382 9.000000
10.779864 3.000000
10.799347 10.000000
10.818829 7.000000
10.838312 6.000000
10.857794 11.000000
10.877276 8.000000
10.896759 6.000000
10.916241 16.000000
10.935723 8.000000
10.955206 8.000000
10.974688 4.000000
10.994170 7.000000
11.013653 5.000000
11.033135 6.000000
11.052618 5.000000
11.072100 12.000000
11.091582 7.000000
11.111065 7.000000
11.130547 13.000000
11.150029 13.000000
11.169512 12.000000
11.188994 4.000000
11.208477 4.000000
11.227959 8.000000
11.247441 10.000000
11.266924 8.000000
11.286406 4.000000
11.305888 8.000000
11.325371 5.000000
11.344853 9.000000
11.364335 6.000000
11.383818 8.000000
11.403300 12.000000
11.422783 10.000000
11.442265 4.000000
11.461747 5.000000
11.481230 7.000000
11.500712 7.000000
11.520194 6.000000
11.539677 7.000000
11.559159 9.000000
11.578642 8.000000
11.598124 3.000000
11.617606 2.000000
11.637089 6.000000
11.656571 5.000000
11.676053 11.000000
11.695536 5.000000
11.715018 10.000000
11.734500 8.000000
11.753983 7.000000
11.773465 7.000000
11.792948 8.000000
11.812430 9.000000
11.831912 7.000000
11.851395 4.000000
11.870877 6.000000
11.890359 7.000000
11.909842 14.000000
11.929324 6.000000
11.948807 6.000000
11.968289 4.000000
11.987771 7.000000
12.007254 6.000000
12.026736 6.000000
12.046218 6.000000
12.065701 5.000000
12.085183 8.000000
12.104666 3.000000
12.124148 7.000000
12.143630 8.000000
12.163113 5.000000
12.182595 3.000000
12.202077 6.000000
12.221560 6.000000
12.241042 6.000000
12.260524 8.000000
12.280007 2.000000
12.299489 6.000000
12.318972 11.000000
12.338454 7.000000
12.357936 6.000000
12.377419 8.000000
12.396901 9.000000
12.416383 10.000000
12.435866 7.000000
12.455348 8.000000
12.474831 5.000000
12.494313 7.000000
12.513795 8.000000
12.533278 7.000000
12.552760 10.000000
12.572242 4.000000
12.591725 5.000000
12.611207 8.000000
12.630689 7.000000
12.650172 6.000000
12.669654 7.000000
12.689137 6.000000
12.708619 8.000000
12.728101 8.000000
12.747584 12.000000
12.767066 7.000000
12.786548 8.000000
12.806031 5.000000
12.825513 11.000000
12.844996 6.000000
12.864478 5.000000
12.883960 5.000000
12.903443 11.000000
12.922925 13.000000
12.942407 6.000000
12.961890 6.000000
12.981372 7.000000
13.000854 10.000000
13.020337 8.000000
13.039819 9.000000
13.059302 8.000000
13.078784 10.000000
13.098266 8.000000
13.117749 9.000000
13.137231 4.000000
13.156713 6.000000
13.176196 12.000000
13.195678 8.000000
13.215161 6.000000
13.234643 8.000000
13.254125 7.000000
13.273608 9.000000
13.293090 6.000000
13.312572 4.000000
13.332055 7.000000
13.351537 8.000000
13.371019 7.000000
13.390502 10.000000
13.409984 2.000000
13.429467 8.000000
13.448949 7.000000
13.468431 9.000000
13.487914 10.000000
13.507396 5.000000
13.526878 2.000000
13.546361 4.000000
13.565843 7.000000
13.585326 8.000000
13.604808 5.000000
13.624290 10.000000
13.643773 9.000000
13.663255 6.000000
13.682737 2.000000
13.702220 5.000000
13.721702 8.000000
13.741185 8.000000
13.760667 11.000000
13.780149 7.000000
13.799632 8.000000
13.819114 7.000000
13.838596 6.000000
13.858079 4.000000
13.877561 11.000000
13.897043 6.000000
13.916526 8.000000
13.936008 5.000000
13.955491 5.000000
13.974973 8.000000
13.994455 6.000000
14.013938 7.000000
14.033420 9.000000
14.052902 7.000000
14.072385 3.000000
14.091867 6.000000
14.111350 6.000000
14.130832 8.000000
14.150314 5.000000
14.169797 7.000000
14.189279 7.000000
14.208761 4.000000
14.228244 8.000000
14.247726 5.000000
14.267208 4.000000
14.286691 4.000000
14.306173 8.000000
14.325656 4.000000
14.345138 8.000000
14.364620 6.000000
14.384103 8.000000
14.403585 5.000000
14.423067 5.000000
14.442550 4.000000
14.462032 11.000000
14.481515 10.000000
14.500997 5.000000
14.520479 4.000000
14.539962 7.000000
14.559444 5.000000
14.578926 4.000000
14.598409 5.000000
14.617891 6.000000
14.637373 9.000000
14.656856 4.000000
14.676338 5.000000
14.695821 8.000000
14.715303 6.000000
14.734785 13.000000
14.754268 3.000000
14.773750 6.000000
14.793232 3.000000
14.812715 5.000000
14.832197 6.000000
14.851680 6.000000
14.871162 5.000000
14.890644 3.000000
14.910127 5.000000
14.929609 5.000000
14.949091 7.000000
14.968574 5.000000
14.988056 5.000000
15.007538 6.000000
15.027021 8.000000
15.046503 16.000000
15.065986 2.000000
15.085468 2.000000
15.104950 6.000000
15.124433 5.000000
15.143915 3.000000
15.163397 3.000000
15.182880 9.000000
15.202362 1.000000
15.221845 6.000000
15.241327 6.000000
15.260809 6.000000
15.280292 9.000000
15.299774 4.000000
15.319256 4.000000
15.338739 6.000000
15.358221 8.000000
15.377704 8.000000
15.397186 7.000000
15.416668 7.000000
15.436151 8.000000
15.455633 4.000000
15.475115 3.000000
15.494598 7.000000
15.514080 3.000000
15.533562 4.000000
15.553045 5.000000
15.572527 4.000000
15.592010 5.000000
15.611492 7.000000
15.630974 2.000000
15.650457 5.000000
15.669939 4.000000
15.689421 2.000000
15.708904 5.000000
15.728386 7.000000
15.747869 9.000000
15.767351 6.000000
15.786833 6.000000
15.806316 2.000000
15.825798 6.000000
15.845280 6.000000
15.864763 7.000000
15.884245 7.000000
15.903727 4.000000
15.923210 5.000000
15.942692 4.000000
15.962175 5.000000
15.981657 5.000000
16.001139 4.000000
16.020622 4.000000
16.040104 7.000000
16.059586 4.000000
16.079069 11.000000
16.098551 7.000000
16.118034 5.000000
16.137516 3.000000
16.156998 5.000000
16.176481 2.000000
16.195963 10.000000
16.215445 1.000000
16.234928 6.000000
16.254410 8.000000
16.273892 5.000000
16.293375 4.000000
16.312857 6.000000
16.332340 4.000000
16.351822 5.000000
16.371304 6.000000
16.390787 5.000000
16.410269 2.000000
16.429751 7.000000
16.449234 2.000000
16.468716 5.000000
16.488199 7.000000
16.507681 3.000000
16.527163 5.000000
16.546646 3.000000
16.566128 5.000000
16.585610 7.000000
16.605093 7.000000
16.624575 5.000000
16.644057 4.000000
16.663540 5.000000
16.683022 7.000000
16.702505 4.000000
16.721987 4.000000
16.741469 8.000000
16.760952 2.000000
16.780434 2.000000
16.799916 2.000000
16.819399 6.000000
16.838881 3.000000
16.858364 4.000000
16.877846 5.000000
16.897328 5.000000
16.916811 5.000000
16.936293 3.000000
16.955775 6.000000
16.975258 3.000000
16.994740 3.000000
17.014222 3.000000
17.033705 5.000000
17.053187 2.000000
17.072670 5.000000
17.092152 9.000000
17.111634 5.000000
17.131117 6.000000
17.150599 7.000000
17.170081 2.000000
17.189564 5.000000
17.209046 6.000000
17.228529 6.000000
17.248011 4.000000
17.267493 2.000000
17.286976 2.000000
17.306458 3.000000
17.325940 4.000000
17.345423 1.000000
17.364905 1.000000
17.384388 4.000000
17.403870 4.000000
17.423352 2.000000
17.442835 5.000000
17.462317 5.000000
17.481799 6.000000
17.501282 7.000000
17.520764 7.000000
17.540246 3.000000
17.559729 2.000000
17.579211 4.000000
17.598694 1.000000
17.618176 3.000000
17.637658 4.000000
17.657141 5.000000
17.676623 3.000000
17.696105 7.000000
17.715588 5.000000
17.735070 5.000000
17.754553 5.000000
17.774035 6.000000
17.793517 3.000000
17.813000 9.000000
17.832482 2.000000
17.851964 3.000000
17.871447 5.000000
17.890929 4.000000
17.910411 6.000000
17.929894 9.000000
17.949376 4.000000
17.968859 5.000000
17.988341 4.000000
18.007823 9.000000
18.027306 9.000000
18.046788 3.000000
18.066270 4.000000
18.085753 6.000000
18.105235 3.000000
18.124718 13.000000
18.144200 4.000000
18.163682 4.000000
18.183165 6.000000
18.202647 4.000000
18.222129 6.000000
18.241612 3.000000
18.261094 2.000000
18.280576 5.000000
18.300059 3.000000
18.319541 5.000000
18.339024 6.000000
18.358506 2.000000
18.377988 5.000000
18.397471 5.000000
18.416953 2.000000
18.436435 3.000000
18.455918 5.000000
18.475400 3.000000
18.494883 3.000000
18.514365 2.000000
18.533847 2.000000
18.553330 1.000000
18.572812 2.000000
18.592294 8.000000
18.611777 4.000000
18.631259 2.000000
18.650741 6.000000
18.670224 3.000000
18.689706 7.000000
18.709189 1.000000
18.728671 3.000000
18.748153 2.000000
18.767636 0.000001
18.787118 1.000000
18.806600 3.000000
18.826083 4.000000
18.845565 4.000000
18.865048 3.000000
18.884530 5.000000
18.904012 1.000000
18.923495 6.000000
18.942977 7.000000
18.962459 1.000000
18.981942 5.000000
19.001424 5.000000
19.020907 2.000000
19.040389 2.000000
19.059871 7.000000
19.079354 5.000000
19.098836 2.000000
19.118318 6.000000
19.137801 4.000000
19.157283 7.000000
19.176765 1.000000
19.196248 6.000000
19.215730 3.000000
19.235213 4.000000
19.254695 5.000000
19.274177 7.000000
19.293660 2.000000
19.313142 4.000000
19.332624 5.000000
19.352107 1.000000
19.371589 6.000000
19.391072 4.000000
19.410554 2.000000
19.430036 3.000000
19.449519 4.000000
19.469001 5.000000
19.488483 6.000000
19.507966 3.000000
19.527448 5.000000
19.546930 6.000000
19.566413 2.000000
19.585895 4.000000
19.605378 6.000000
19.624860 3.000000
19.644342 5.000000
19.663825 1.000000
19.683307 6.000000
19.702789 3.000000
19.722272 7.000000
19.741754 5.000000
19.761237 3.000000
19.780719 4.000000
19.800201 4.000000
19.819684 5.000000
19.839166 3.000000
19.858648 5.000000
19.878131 2.000000
19.897613 7.000000
19.917095 7.000000
19.936578 3.000000
19.956060 6.000000
19.975543 5.000000
19.995025 9.000000
20.014507 5.000000
20.033990 3.000000
20.053472 4.000000
20.072954 6.000000
20.092437 5.000000
20.111919 1.000000
20.131402 3.000000
20.150884 3.000000
20.170366 2.000000
20.189849 8.000000
20.209331 3.000000
20.228813 2.000000
20.248296 0.000001
20.267778 3.000000
20.287260 4.000000
20.306743 4.000000
20.326225 3.000000
20.345708 0.000001
20.365190 3.000000
20.384672 1.000000
20.404155 6.000000
20.423637 0.000001
20.443119 6.000000
20.462602 3.000000
20.482084 2.000000
20.501567 2.000000
20.521049 7.000000
20.540531 5.000000
20.560014 2.000000
20.579496 4.000000
20.598978 4.000000
20.618461 6.000000
20.637943 1.000000
20.657426 0.000001
20.676908 4.000000
20.696390 4.000000
20.715873 3.000000
20.735355 1.000000
20.754837 0.000001
20.774320 4.000000
20.793802 5.000000
20.813284 2.000000
20.832767 3.000000
20.852249 2.000000
20.871732 3.000000
20.891214 3.000000
20.910696 4.000000
20.930179 5.000000
20.949661 3.000000
20.969143 3.000000
20.988626 5.000000
21.008108 5.000000
21.027591 0.000001
21.047073 2.000000
21.066555 4.000000
21.086038 3.000000
21.105520 7.000000
21.125002 2.000000
21.144485 2.000000
21.163967 6.000000
21.183449 4.000000
21.202932 3.000000
21.222414 3.000000
21.241897 3.000000
21.261379 2.000000
21.280861 3.000000
21.300344 1.000000
21.319826 4.000000
21.339308 2.000000
21.358791 3.000000
21.378273 7.000000
21.397756 2.000000
21.417238 3.000000
21.436720 1.000000
21.456203 4.000000
21.475685 2.000000
21.495167 1.000000
21.514650 9.000000
21.534132 2.000000
21.553614 1.000000
21.573097 0.000001
21.592579 1.000000
21.612062 2.000000
21.631544 3.000000
21.651026 0.000001
21.670509 2.000000
21.689991 7.000000
21.709473 3.000000
21.728956 7.000000
21.748438 2.000000
21.767921 5.000000
21.787403 4.000000
21.806885 4.000000
21.826368 1.000000
21.845850 1.000000
21.865332 1.000000
21.884815 2.000000
21.904297 6.000000
21.923779 5.000000
21.943262 4.000000
21.962744 2.000000
21.982227 3.000000
22.001709 0.000001
22.021191 1.000000
22.040674 6.000000
22.060156 2.000000
22.079638 1.000000
22.099121 5.000000
22.118603 5.000000
22.138086 8.000000
22.157568 6.000000
22.177050 4.000000
22.196533 5.000000
22.216015 3.000000
22.235497 3.000000
22.254980 4.000000
22.274462 2.000000
22.293945 4.000000
22.313427 3.000000
22.332909 2.000000
22.352392 3.000000
22.371874 2.000000
22.391356 5.000000
22.410839 4.000000
22.430321 2.000000
22.449803 1.000000
22.469286 3.000000
22.488768 4.000000
22.508251 3.000000
22.527733 3.000000
22.547215 3.000000
22.566698 3.000000
22.586180 4.000000
22.605662 1.000000
22.625145 4.000000
22.644627 4.000000
22.664110 4.000000
22.683592 3.000000
22.703074 5.000000
22.722557 2.000000
22.742039 6.000000
22.761521 5.000000
22.781004 1.000000
22.800486 3.000000
22.819968 2.000000
22.839451 7.000000
22.858933 7.000000
22.878416 3.000000
22.897898 8.000000
22.917380 3.000000
22.936863 10.000000
22.956345 15.000000
22.975827 28.000000
22.995310 30.000000
23.014792 35.000000
23.034275 43.000000
23.053757 58.000000
23.073239 37.000000
23.092722 27.000000
23.112204 24.000000
23.131686 14.000000
23.151169 13.000000
23.170651 7.000000
23.190133 3.000000
23.209616 8.000000
23.229098 3.000000
23.248581 5.000000
23.268063 3.000000
23.287545 5.000000
23.307028 0.000001
23.326510 4.000000
23.345992 4.000000
23.365475 3.000000
23.384957 6.000000
23.404440 2.000000
23.423922 3.000000
23.443404 0.000001
23.462887 5.000000
23.482369 5.000000
23.501851 2.000000
23.521334 9.000000
23.540816 3.000000
23.560298 6.000000
23.579781 2.000000
23.599263 2.000000
23.618746 3.000000
23.638228 4.000000
23.657710 0.000001
23.677193 4.000000
23.696675 3.000000
23.716157 1.000000
23.735640 2.000000
23.755122 3.000000
23.774605 4.000000
23.794087 6.000000
23.813569 4.000000
23.833052 5.000000
23.852534 4.000000
23.872016 3.000000
23.891499 1.000000
23.910981 1.000000
23.930463 3.000000
23.949946 3.000000
23.969428 5.000000
23.988911 5.000000
24.008393 2.000000
24.027875 3.000000
24.047358 2.000000
24.066840 2.000000
24.086322 1.000000
24.105805 3.000000
24.125287 3.000000
24.144770 2.000000
24.164252 6.000000
24.183734 0.000001
24.203217 4.000000
24.222699 4.000000
24.242181 1.000000
24.261664 3.000000
24.281146 5.000000
24.300629 3.000000
24.320111 3.000000
24.339593 6.000000
24.359076 5.000000
24.378558 2.000000
24.398040 2.000000
24.417523 7.000000
24.437005 2.000000
24.456487 6.000000
24.475970 4.000000
24.495452 4.000000
24.514935 3.000000
24.534417 1.000000
24.553899 4.000000
24.573382 3.000000
24.592864 1.000000
24.612346 3.000000
24.631829 2.000000
24.651311 0.000001
24.670794 7.000000
24.690276 5.000000
24.709758 6.000000
24.729241 2.000000
24.748723 2.000000
24.768205 1.000000
24.787688 3.000000
24.807170 3.000000
24.826652 1.000000
24.846135 4.000000
24.865617 3.000000
24.885100 4.000000
24.904582 2.000000
24.924064 2.000000
24.943547 3.000000
24.963029 2.000000
24.982511 5.000000
25.001994 4.000000
25.021476 2.000000
25.040959 2.000000
25.060441 4.000000
25.079923 3.000000
25.099406 1.000000
25.118888 2.000000
25.138370 3.000000
25.157853 3.000000
25.177335 2.000000
25.196817 2.000000
25.216300 4.000000
25.235782 2.000000
25.255265 5.000000
25.274747 4.000000
25.294229 8.000000
25.313712 5.000000
25.333194 4.000000
25.352676 4.000000
25.372159 7.000000
25.391641 2.000000
25.411124 0.000001
25.430606 6.000000
25.450088 3.000000
25.469571 5.000000
25.489053 3.000000
25.508535 5.000000
25.528018 2.000000
25.547500 1.000000
25.566982 5.000000
25.586465 4.000000
25.605947 4.000000
25.625430 1.000000
25.644912 7.000000
25.664394 3.000000
25.683877 4.000000
25.703359 4.000000
25.722841 1.000000
25.742324 2.000000
25.761806 6.000000
25.781289 2.000000
25.800771 4.000000
25.820253 5.000000
25.839736 4.000000
25.859218 3.000000
25.878700 2.000000
25.898183 6.000000
25.917665 3.000000
25.937148 1.000000
25.956630 2.000000
25.976112 2.000000
25.995595 3.000000
26.015077 3.000000
26.034559 3.000000
26.054042 1.000000
26.073524 2.000000
26.093006 5.000000
26.112489 1.000000
26.131971 5.000000
26.151454 5.000000
26.170936 3.000000
26.190418 3.000000
26.209901 1.000000
26.229383 3.000000
26.248865 6.000000
26.268348 4.000000
26.287830 2.000000
26.307313 2.000000
26.326795 5.000000
26.346277 0.000001
26.365760 3.000000
26.385242 3.000000
26.404724 3.000000
26.424207 5.000000
26.443689 6.000000
26.463171 3.000000
26.482654 8.000000
26.502136 3.000000
26.521619 5.000000
26.541101 1.000000
26.560583 3.000000
26.580066 1.000000
26.599548 1.000000
26.619030 5.000000
26.638513 6.000000
26.657995 3.000000
26.677478 9.000000
26.696960 3.000000
26.716442 5.000000
26.735925 5.000000
26.755407 5.000000
26.774889 4.000000
26.794372 5.000000
26.813854 3.000000
26.833336 10.000000
26.852819 3.000000
26.872301 2.000000
26.891784 1.000000
26.911266 5.000000
26.930748 1.000000
26.950231 1.000000
26.969713 3.000000
26.989195 2.000000
27.008678 1.000000
27.028160 4.000000
27.047643 1.000000
27.067125 5.000000
27.086607 2.000000
27.106090 3.000000
27.125572 2.000000
27.145054 5.000000
27.164537 4.000000
27.184019 2.000000
27.203501 4.000000
27.222984 1.000000
27.242466 3.000000
27.261949 4.000000
27.281431 3.000000
27.300913 5.000000
27.320396 3.000000
27.339878 3.000000
27.359360 2.000000
27.378843 1.000000
27.398325 2.000000
27.417808 2.000000
27.437290 1.000000
27.456772 1.000000
27.476255 1.000000
27.495737 0.000001
27.515219 1.000000
27.534702 2.000000
27.554184 4.000000
27.573667 2.000000
27.593149 2.000000
27.612631 0.000001
27.632114 4.000000
27.651596 5.000000
27.671078 3.000000
27.690561 1.000000
27.710043 5.000000
27.729525 6.000000
27.749008 5.000000
27.768490 4.000000
27.787973 3.000000
27.807455 4.000000
27.826937 2.000000
27.846420 3.000000
27.865902 1.000000
27.885384 0.000001
27.904867 2.000000
27.924349 3.000000
27.943832 1.000000
27.963314 3.000000
27.982796 3.000000
28.002279 2.000000
28.021761 3.000000
28.041243 2.000000
28.060726 6.000000
28.080208 4.000000
28.099690 7.000000
28.119173 2.000000
28.138655 8.000000
28.158138 2.000000
28.177620 1.000000
28.197102 2.000000
28.216585 1.000000
28.236067 3.000000
28.255549 4.000000
28.275032 2.000000
28.294514 1.000000
28.313997 3.000000
28.333479 1.000000
28.352961 6.000000
28.372444 9.000000
28.391926 3.000000
28.411408 8.000000
28.430891 8.000000
28.450373 10.000000
28.469855 6.000000
28.489338 6.000000
28.508820 3.000000
28.528303 4.000000
28.547785 8.000000
28.567267 3.000000
28.586750 5.000000
28.606232 3.000000
28.625714 7.000000
28.645197 5.000000
28.664679 3.000000
28.684162 7.000000
28.703644 7.000000
28.723126 7.000000
28.742609 5.000000
28.762091 9.000000
28.781573 11.000000
28.801056 8.000000
28.820538 7.000000
28.840020 3.000000
28.859503 6.000000
28.878985 6.000000
28.898468 5.000000
28.917950 5.000000
28.937432 10.000000
28.956915 6.000000
28.976397 8.000000
28.995879 5.000000
29.015362 6.000000
29.034844 9.000000
29.054327 10.000000
29.073809 13.000000
29.093291 11.000000
29.112774 14.000000
29.132256 13.000000
29.151738 17.000000
29.171221 19.000000
29.190703 19.000000
29.210185 21.000000
29.229668 31.000000
29.249150 33.000000
29.268633 52.000000
29.288115 80.000000
29.307597 114.000000
29.327080 264.000000
29.346562 483.000000
29.366044 705.000000
29.385527 867.000000
29.405009 735.000000
29.424492 485.000000
29.443974 526.000000
29.463456 462.000000
29.482939 323.000000
29.502421 162.000000
29.521903 108.000000
29.541386 65.000000
29.560868 51.000000
29.580351 33.000000
29.599833 20.000000
29.619315 24.000000
29.638798 18.000000
29.658280 14.000000
29.677762 14.000000
29.697245 9.000000
29.716727 6.000000
29.736209 9.000000
29.755692 7.000000
29.775174 13.000000
29.794657 12.000000
29.814139 1.000000
29.833621 10.000000
29.853104 4.000000
29.872586 4.000000
29.892068 9.000000
29.911551 6.000000
29.931033 7.000000
29.950516 2.000000
29.969998 8.000000
29.989480 4.000000
30.008963 6.000000
30.028445 4.000000
30.047927 5.000000
30.067410 6.000000
30.086892 4.000000
30.106374 6.000000
30.125857 4.000000
30.145339 2.000000
30.164822 5.000000
30.184304 2.000000
30.203786 2.000000
30.223269 3.000000
30.242751 7.000000
30.262233 5.000000
30.281716 10.000000
30.301198 5.000000
30.320681 0.000001
30.340163 6.000000
30.359645 5.000000
30.379128 7.000000
30.398610 2.000000
30.418092 6.000000
30.437575 4.000000
30.457057 5.000000
30.476539 5.000000
30.496022 6.000000
30.515504 3.000000
30.534987 4.000000
30.554469 3.000000
30.573951 6.000000
30.593434 7.000000
30.612916 3.000000
30.632398 1.000000
30.651881 6.000000
30.671363 1.000000
30.690846 6.000000
30.710328 8.000000
30.729810 8.000000
30.749293 3.000000
30.768775 4.000000
30.788257 2.000000
30.807740 3.000000
30.827222 4.000000
30.846704 1.000000
30.866187 3.000000
30.885669 3.000000
30.905152 2.000000
30.924634 8.000000
30.944116 3.000000
30.963599 3.000000
30.983081 4.000000
31.002563 3.000000
31.022046 2.000000
31.041528 4.000000
31.061011 2.000000
31.080493 2.000000
31.099975 6.000000
31.119458 2.000000
31.138940 6.000000
31.158422 3.000000
31.177905 5.000000
31.197387 5.000000
31.216870 6.000000
31.236352 0.000001
31.255834 3.000000
31.275317 3.000000
31.294799 4.000000
31.314281 8.000000
31.333764 4.000000
31.353246 5.000000
31.372728 11.000000
31.392211 10.000000
31.411693 19.000000
31.431176 10.000000
31.450658 13.000000
31.470140 9.000000
31.489623 17.000000
31.509105 3.000000
31.528587 4.000000
31.548070 5.000000
31.567552 3.000000
31.587035 6.000000
31.606517 0.000001
31.625999 6.000000
31.645482 3.000000
31.664964 3.000000
31.684446 3.000000
31.703929 4.000000
31.723411 5.000000
31.742893 4.000000
31.762376 2.000000
31.781858 2.000000
31.801341 3.000000
31.820823 3.000000
31.840305 4.000000
31.859788 7.000000
31.879270 2.000000
31.898752 2.000000
31.918235 1.000000
31.937717 5.000000
31.957200 4.000000
31.976682 1.000000
31.996164 5.000000
32.015647 6.000000
32.035129 7.000000
32.054611 4.000000
32.074094 1.000000
32.093576 4.000000
32.113058 6.000000
32.132541 2.000000
32.152023 5.000000
32.171506 3.000000
32.190988 2.000000
32.210470 3.000000
32.229953 1.000000
32.249435 2.000000
32.268917 1.000000
32.288400 2.000000
32.307882 2.000000
32.327365 4.000000
32.346847 0.000001
32.366329 4.000000
32.385812 2.000000
32.405294 6.000000
32.424776 4.000000
32.444259 7.000000
32.463741 1.000000
32.483223 5.000000
32.502706 2.000000
32.522188 2.000000
32.541671 3.000000
32.561153 3.000000
32.580635 9.000000
32.600118 3.000000
32.619600 2.000000
32.639082 3.000000
32.658565 1.000000
32.678047 2.000000
32.697530 3.000000
32.717012 4.000000
32.736494 2.000000
32.755977 4.000000
32.775459 1.000000
32.794941 1.000000
32.814424 1.000000
32.833906 1.000000
32.853389 1.000000
32.872871 3.000000
32.892353 1.000000
32.911836 1.000000
32.931318 5.000000
32.950800 3.000000
32.970283 2.000000
32.989765 3.000000
33.009247 1.000000
33.028730 5.000000
33.048212 2.000000
33.067695 0.000001
33.087177 2.000000
33.106659 3.000000
33.126142 5.000000
33.145624 2.000000
33.165106 2.000000
33.184589 2.000000
33.204071 3.000000
33.223554 1.000000
33.243036 4.000000
33.262518 2.000000
33.282001 1.000000
33.301483 2.000000
33.320965 3.000000
33.340448 0.000001
33.359930 3.000000
33.379412 5.000000
33.398895 1.000000
33.418377 2.000000
33.437860 2.000000
33.457342 4.000000
33.476824 1.000000
33.496307 6.000000
33.515789 0.000001
33.535271 3.000000
33.554754 3.000000
33.574236 3.000000
33.593719 4.000000
33.613201 4.000000
33.632683 4.000000
33.652166 3.000000
33.671648 2.000000
33.691130 2.000000
33.710613 4.000000
33.730095 2.000000
33.749577 2.000000
33.769060 4.000000
33.788542 0.000001
33.808025 4.000000
33.827507 1.000000
33.846989 4.000000
33.866472 1.000000
33.885954 1.000000
33.905436 1.000000
33.924919 2.000000
33.944401 2.000000
33.963884 1.000000
33.983366 3.000000
34.002848 2.000000
34.022331 2.000000
34.041813 4.000000
34.061295 3.000000
34.080778 4.000000
34.100260 2.000000
34.119742 4.000000
34.139225 4.000000
34.158707 1.000000
34.178190 3.000000
34.197672 3.000000
34.217154 3.000000
34.236637 1.000000
34.256119 2.000000
34.275601 2.000000
34.295084 3.000000
34.314566 4.000000
34.334049 1.000000
34.353531 6.000000
34.373013 4.000000
34.392496 3.000000
34.411978 3.000000
34.431460 5.000000
34.450943 3.000000
34.470425 1.000000
34.489908 2.000000
34.509390 1.000000
34.528872 0.000001
34.548355 5.000000
34.567837 3.000000
34.587319 6.000000
34.606802 1.000000
34.626284 2.000000
34.645766 4.000000
34.665249 0.000001
34.684731 1.000000
34.704214 2.000000
34.723696 3.000000
34.743178 2.000000
34.762661 5.000000
34.782143 3.000000
34.801625 3.000000
34.821108 0.000001
34.840590 2.000000
34.860073 1.000000
34.879555 2.000000
34.899037 3.000000
34.918520 5.000000
34.938002 1.000000
34.957484 0.000001
34.976967 3.000000
34.996449 6.000000
35.015931 5.000000
35.035414 4.000000
35.054896 1.000000
35.074379 5.000000
35.093861 0.000001
35.113343 2.000000
35.132826 1.000000
35.152308 3.000000
35.171790 5.000000
35.191273 0.000001
35.210755 0.000001
35.230238 6.000000
35.249720 4.000000
35.269202 0.000001
35.288685 2.000000
35.308167 5.000000
35.327649 5.000000
35.347132 4.000000
35.366614 2.000000
35.386096 4.000000
35.405579 6.000000
35.425061 2.000000
35.444544 5.000000
35.464026 1.000000
35.483508 5.000000
35.502991 3.000000
35.522473 2.000000
35.541955 1.000000
35.561438 3.000000
35.580920 3.000000
35.600403 1.000000
35.619885 1.000000
35.639367 4.000000
35.658850 1.000000
35.678332 2.000000
35.697814 5.000000
35.717297 5.000000
35.736779 1.000000
35.756261 3.000000
35.775744 5.000000
35.795226 6.000000
35.814709 6.000000
35.834191 3.000000
35.853673 16.000000
35.873156 12.000000
35.892638 18.000000
35.912120 25.000000
35.931603 50.000000
35.951085 47.000000
35.970568 44.000000
35.990050 32.000000
36.009532 26.000000
36.029015 27.000000
36.048497 31.000000
36.067979 20.000000
36.087462 15.000000
36.106944 6.000000
36.126426 6.000000
36.145909 6.000000
36.165391 4.000000
36.184874 1.000000
36.204356 5.000000
36.223838 2.000000
36.243321 4.000000
36.262803 1.000000
36.282285 4.000000
36.301768 0.000001
36.321250 4.000000
36.340733 1.000000
36.360215 1.000000
36.379697 3.000000
36.399180 6.000000
36.418662 4.000000
36.438144 2.000000
36.457627 1.000000
36.477109 5.000000
36.496592 5.000000
36.516074 1.000000
36.535556 6.000000
36.555039 2.000000
36.574521 2.000000
36.594003 3.000000
36.613486 4.000000
36.632968 2.000000
36.652450 0.000001
36.671933 7.000000
36.691415 3.000000
36.710898 2.000000
36.730380 1.000000
36.749862 4.000000
36.769345 3.000000
36.788827 3.000000
36.808309 3.000000
36.827792 3.000000
36.847274 1.000000
36.866757 1.000000
36.886239 0.000001
36.905721 1.000000
36.925204 2.000000
36.944686 4.000000
36.964168 1.000000
36.983651 3.000000
37.003133 2.000000
37.022615 2.000000
37.042098 2.000000
37.061580 1.000000
37.081063 2.000000
37.100545 2.000000
37.120027 3.000000
37.139510 2.000000
37.158992 2.000000
37.178474 2.000000
37.197957 0.000001
37.217439 3.000000
37.236922 2.000000
37.256404 2.000000
37.275886 1.000000
37.295369 2.000000
37.314851 1.000000
37.334333 1.000000
37.353816 1.000000
37.373298 4.000000
37.392780 4.000000
37.412263 7.000000
37.431745 3.000000
37.451228 1.000000
37.470710 5.000000
37.490192 4.000000
37.509675 2.000000
37.529157 1.000000
37.548639 4.000000
37.568122 0.000001
37.587604 1.000000
37.607087 1.000000
37.626569 0.000001
37.646051 1.000000
37.665534 1.000000
37.685016 2.000000
37.704498 4.000000
37.723981 1.000000
37.743463 7.000000
37.762945 4.000000
37.782428 3.000000
37.801910 4.000000
37.821393 4.000000
37.840875 2.000000
37.860357 2.000000
37.879840 3.000000
37.899322 1.000000
37.918804 2.000000
37.938287 2.000000
37.957769 0.000001
37.977252 2.000000
37.996734 1.000000
38.016216 1.000000
38.035699 3.000000
38.055181 2.000000
38.074663 2.000000
38.094146 4.000000
38.113628 2.000000
38.133111 3.000000
38.152593 3.000000
38.172075 2.000000
38.191558 3.000000
38.211040 5.000000
38.230522 5.000000
38.250005 1.000000
38.269487 5.000000
38.288969 1.000000
38.308452 2.000000
38.327934 1.000000
38.347417 2.000000
38.366899 0.000001
38.386381 4.000000
38.405864 4.000000
38.425346 4.000000
38.444828 2.000000
38.464311 4.000000
38.483793 1.000000
38.503276 3.000000
38.522758 2.000000
38.542240 1.000000
38.561723 3.000000
38.581205 1.000000
38.600687 3.000000
38.620170 0.000001
38.639652 3.000000
38.659134 4.000000
38.678617 1.000000
38.698099 2.000000
38.717582 4.000000
38.737064 4.000000
38.756546 1.000000
38.776029 3.000000
38.795511 1.000000
38.814993 1.000000
38.834476 2.000000
38.853958 3.000000
38.873441 4.000000
38.892923 3.000000
38.912405 3.000000
38.931888 3.000000
38.951370 2.000000
38.970852 3.000000
38.990335 0.000001
39.009817 5.000000
39.029299 2.000000
39.048782 3.000000
39.068264 1.000000
39.087747 4.000000
39.107229 6.000000
39.126711 1.000000
39.146194 2.000000
39.165676 4.000000
39.185158 5.000000
39.204641 8.000000
39.224123 6.000000
39.243606 2.000000
39.263088 4.000000
39.282570 11.000000
39.302053 21.000000
39.321535 24.000000
39.341017 45.000000
39.360500 68.000000
39.379982 68.000000
39.399464 62.000000
39.418947 64.000000
39.438429 56.000000
39.457912 50.000000
39.477394 50.000000
39.496876 47.000000
39.516359 32.000000
39.535841 37.000000
39.555323 18.000000
39.574806 12.000000
39.594288 12.000000
39.613771 8.000000
39.633253 9.000000
39.652735 6.000000
39.672218 7.000000
39.691700 4.000000
39.711182 4.000000
39.730665 3.000000
39.750147 2.000000
39.769630 2.000000
39.789112 5.000000
39.808594 4.000000
39.828077 2.000000
39.847559 2.000000
39.867041 3.000000
39.886524 3.000000
39.906006 0.000001
39.925488 3.000000
39.944971 2.000000
39.964453 1.000000
39.983936 3.000000
40.003418 2.000000
40.022900 0.000001
40.042383 1.000000
40.061865 3.000000
40.081347 6.000000
40.100830 3.000000
40.120312 0.000001
40.139795 4.000000
40.159277 0.000001
40.178759 3.000000
40.198242 1.000000
40.217724 4.000000
40.237206 2.000000
40.256689 2.000000
40.276171 1.000000
40.295653 6.000000
40.315136 0.000001
40.334618 3.000000
40.354101 3.000000
40.373583 3.000000
40.393065 3.000000
40.412548 1.000000
40.432030 3.000000
40.451512 0.000001
40.470995 3.000000
40.490477 2.000000
40.509960 1.000000
40.529442 1.000000
40.548924 2.000000
40.568407 1.000000
40.587889 2.000000
40.607371 5.000000
40.626854 2.000000
40.646336 1.000000
40.665818 6.000000
40.685301 5.000000
40.704783 2.000000
40.724266 1.000000
40.743748 0.000001
40.763230 2.000000
40.782713 4.000000
40.802195 4.000000
40.821677 4.000000
40.841160 3.000000
40.860642 3.000000
40.880125 4.000000
40.899607 0.000001
40.919089 2.000000
40.938572 1.000000
40.958054 2.000000
40.977536 1.000000
40.997019 3.000000
41.016501 2.000000
41.035983 1.000000
41.055466 4.000000
41.074948 3.000000
41.094431 2.000000
41.113913 1.000000
41.133395 1.000000
41.152878 1.000000
41.172360 1.000000
41.191842 2.000000
41.211325 3.000000
41.230807 5.000000
41.250290 2.000000
41.269772 1.000000
41.289254 1.000000
41.308737 5.000000
41.328219 2.000000
41.347701 1.000000
41.367184 3.000000
41.386666 6.000000
41.406149 3.000000
41.425631 3.000000
41.445113 2.000000
41.464596 0.000001
41.484078 1.000000
41.503560 1.000000
41.523043 3.000000
41.542525 3.000000
41.562007 1.000000
41.581490 1.000000
41.600972 1.000000
41.620455 2.000000
41.639937 3.000000
41.659419 2.000000
41.678902 6.000000
41.698384 2.000000
41.717866 4.000000
41.737349 2.000000
41.756831 1.000000
41.776314 3.000000
41.795796 4.000000
41.815278 3.000000
41.834761 0.000001
41.854243 2.000000
41.873725 1.000000
41.893208 2.000000
41.912690 1.000000
41.932172 4.000000
41.951655 1.000000
41.971137 1.000000
41.990620 3.000000
42.010102 0.000001
42.029584 1.000000
42.049067 4.000000
42.068549 2.000000
42.088031 2.000000
42.107514 5.000000
42.126996 2.000000
42.146479 2.000000
42.165961 0.000001
42.185443 3.000000
42.204926 1.000000
42.224408 3.000000
42.243890 1.000000
42.263373 2.000000
42.282855 3.000000
42.302337 5.000000
42.321820 5.000000
42.341302 7.000000
42.360785 3.000000
42.380267 3.000000
42.399749 2.000000
42.419232 0.000001
42.438714 1.000000
42.458196 1.000000
42.477679 1.000000
42.497161 2.000000
42.516644 2.000000
42.536126 2.000000
42.555608 2.000000
42.575091 2.000000
42.594573 4.000000
42.614055 5.000000
42.633538 3.000000
42.653020 1.000000
42.672502 2.000000
42.691985 1.000000
42.711467 4.000000
42.730950 1.000000
42.750432 1.000000
42.769914 1.000000
42.789397 4.000000
42.808879 4.000000
42.828361 2.000000
42.847844 7.000000
42.867326 1.000000
42.886809 2.000000
42.906291 6.000000
42.925773 5.000000
42.945256 3.000000
42.964738 5.000000
42.984220 2.000000
43.003703 7.000000
43.023185 8.000000
43.042667 7.000000
43.062150 10.000000
43.081632 24.000000
43.101115 37.000000
43.120597 65.000000
43.140079 64.000000
43.159562 65.000000
43.179044 56.000000
43.198526 42.000000
43.218009 36.000000
43.237491 45.000000
43.256974 36.000000
43.276456 32.000000
43.295938 22.000000
43.315421 12.000000
43.334903 9.000000
43.354385 7.000000
43.373868 8.000000
43.393350 5.000000
43.412833 2.000000
43.432315 5.000000
43.451797 1.000000
43.471280 3.000000
43.490762 5.000000
43.510244 5.000000
43.529727 3.000000
43.549209 4.000000
43.568691 1.000000
43.588174 5.000000
43.607656 2.000000
43.627139 5.000000
43.646621 1.000000
43.666103 3.000000
43.685586 7.000000
43.705068 2.000000
43.724550 3.000000
43.744033 2.000000
43.763515 3.000000
43.782998 2.000000
43.802480 4.000000
43.821962 3.000000
43.841445 3.000000
43.860927 4.000000
43.880409 1.000000
43.899892 1.000000
43.919374 1.000000
43.938856 2.000000
43.958339 5.000000
43.977821 2.000000
43.997304 2.000000
44.016786 2.000000
44.036268 2.000000
44.055751 2.000000
44.075233 2.000000
44.094715 2.000000
44.114198 4.000000
44.133680 4.000000
44.153163 4.000000
44.172645 3.000000
44.192127 1.000000
44.211610 2.000000
44.231092 1.000000
44.250574 6.000000
44.270057 0.000001
44.289539 0.000001
44.309021 5.000000
44.328504 1.000000
44.347986 1.000000
44.367469 3.000000
44.386951 4.000000
44.406433 5.000000
44.425916 4.000000
44.445398 1.000000
44.464880 1.000000
44.484363 1.000000
44.503845 3.000000
44.523328 0.000001
44.542810 2.000000
44.562292 2.000000
44.581775 2.000000
44.601257 2.000000
44.620739 4.000000
44.640222 5.000000
44.659704 0.000001
44.679186 3.000000
44.698669 7.000000
44.718151 6.000000
44.737634 4.000000
44.757116 3.000000
44.776598 3.000000
44.796081 0.000001
44.815563 2.000000
44.835045 2.000000
44.854528 3.000000
44.874010 1.000000
44.893493 2.000000
44.912975 0.000001
44.932457 3.000000
44.951940 2.000000
44.971422 3.000000
44.990904 3.000000
45.010387 1.000000
45.029869 2.000000
45.049352 0.000001
45.068834 6.000000
45.088316 5.000000
45.107799 3.000000
45.127281 2.000000
45.146763 5.000000
45.166246 4.000000
45.185728 2.000000
45.205210 2.000000
45.224693 5.000000
45.244175 5.000000
45.263658 3.000000
45.283140 0.000001
45.302622 2.000000
45.322105 2.000000
45.341587 1.000000
45.361069 1.000000
45.380552 4.000000
45.400034 0.000001
45.419517 2.000000
45.438999 4.000000
45.458481 2.000000
45.477964 3.000000
45.497446 6.000000
45.516928 1.000000
45.536411 5.000000
45.555893 1.000000
45.575375 2.000000
45.594858 3.000000
45.614340 5.000000
45.633823 1.000000
45.653305 4.000000
45.672787 1.000000
45.692270 2.000000
45.711752 5.000000
45.731234 4.000000
45.750717 3.000000
45.770199 0.000001
45.789682 5.000000
45.809164 0.000001
45.828646 2.000000
45.848129 2.000000
45.867611 2.000000
45.887093 0.000001
45.906576 7.000000
45.926058 3.000000
45.945540 3.000000
45.965023 5.000000
45.984505 1.000000
46.003988 1.000000
46.023470 2.000000
46.042952 6.000000
46.062435 0.000001
46.081917 4.000000
46.101399 2.000000
46.120882 3.000000
46.140364 1.000000
46.159847 3.000000
46.179329 3.000000
46.198811 0.000001
46.218294 6.000000
46.237776 1.000000
46.257258 3.000000
46.276741 3.000000
46.296223 2.000000
46.315705 3.000000
46.335188 2.000000
46.354670 1.000000
46.374153 5.000000
46.393635 2.000000
46.413117 4.000000
46.432600 3.000000
46.452082 5.000000
46.471564 5.000000
46.491047 3.000000
46.510529 1.000000
46.530012 3.000000
46.549494 3.000000
46.568976 0.000001
46.588459 3.000000
46.607941 4.000000
46.627423 6.000000
46.646906 2.000000
46.666388 5.000000
46.685871 1.000000
46.705353 5.000000
46.724835 2.000000
46.744318 4.000000
46.763800 2.000000
46.783282 4.000000
46.802765 3.000000
46.822247 4.000000
46.841729 2.000000
46.861212 4.000000
46.880694 5.000000
46.900177 2.000000
46.919659 5.000000
46.939141 2.000000
46.958624 7.000000
46.978106 4.000000
46.997588 9.000000
47.017071 10.000000
47.036553 10.000000
47.056036 17.000000
47.075518 20.000000
47.095000 18.000000
47.114483 24.000000
47.133965 12.000000
47.153447 9.000000
47.172930 17.000000
47.192412 19.000000
47.211894 18.000000
47.231377 21.000000
47.250859 15.000000
47.270342 14.000000
47.289824 8.000000
47.309306 12.000000
47.328789 19.000000
47.348271 15.000000
47.367753 14.000000
47.387236 33.000000
47.406718 34.000000
47.426201 57.000000
47.445683 59.000000
47.465165 78.000000
47.484648 93.000000
47.504130 99.000000
47.523612 96.000000
47.543095 82.000000
47.562577 52.000000
47.582059 50.000000
47.601542 66.000000
47.621024 58.000000
47.640507 50.000000
47.659989 45.000000
47.679471 33.000000
47.698954 21.000000
47.718436 18.000000
47.737918 11.000000
47.757401 7.000000
47.776883 11.000000
47.796366 13.000000
47.815848 9.000000
47.835330 6.000000
47.854813 9.000000
47.874295 5.000000
47.893777 3.000000
47.913260 3.000000
47.932742 4.000000
47.952224 2.000000
47.971707 6.000000
47.991189 5.000000
48.010672 4.000000
48.030154 4.000000
48.049636 5.000000
48.069119 4.000000
48.088601 2.000000
48.108083 5.000000
48.127566 5.000000
48.147048 8.000000
48.166531 2.000000
48.186013 3.000000
48.205495 3.000000
48.224978 3.000000
48.244460 2.000000
48.263942 9.000000
48.283425 5.000000
48.302907 5.000000
48.322389 8.000000
48.341872 15.000000
48.361354 13.000000
48.380837 25.000000
48.400319 23.000000
48.419801 30.000000
48.439284 49.000000
48.458766 67.000000
48.478248 60.000000
48.497731 87.000000
48.517213 69.000000
48.536696 61.000000
48.556178 40.000000
48.575660 37.000000
48.595143 36.000000
48.614625 52.000000
48.634107 43.000000
48.653590 43.000000
48.673072 17.000000
48.692555 28.000000
48.712037 19.000000
48.731519 10.000000
48.751002 12.000000
48.770484 10.000000
48.789966 9.000000
48.809449 9.000000
48.828931 4.000000
48.848413 4.000000
48.867896 5.000000
48.887378 4.000000
48.906861 5.000000
48.926343 2.000000
48.945825 3.000000
48.965308 3.000000
48.984790 4.000000
49.004272 5.000000
49.023755 2.000000
49.043237 1.000000
49.062720 6.000000
49.082202 4.000000
49.101684 3.000000
49.121167 3.000000
49.140649 3.000000
49.160131 1.000000
49.179614 2.000000
49.199096 3.000000
49.218578 5.000000
49.238061 1.000000
49.257543 0.000001
49.277026 1.000000
49.296508 2.000000
49.315990 2.000000
49.335473 6.000000
49.354955 1.000000
49.374437 5.000000
49.393920 4.000000
49.413402 4.000000
49.432885 4.000000
49.452367 3.000000
49.471849 5.000000
49.491332 1.000000
49.510814 5.000000
49.530296 1.000000
49.549779 6.000000
49.569261 2.000000
49.588743 1.000000
49.608226 2.000000
49.627708 4.000000
49.647191 0.000001
49.666673 2.000000
49.686155 3.000000
49.705638 1.000000
49.725120 3.000000
49.744602 1.000000
49.764085 0.000001
49.783567 3.000000
49.803050 4.000000
49.822532 2.000000
49.842014 3.000000
49.861497 2.000000
49.880979 0.000001
49.900461 1.000000
49.919944 4.000000
49.939426 1.000000
49.958908 3.000000
49.978391 4.000000
49.997873 3.000000
50.017356 4.000000
50.036838 3.000000
50.056320 3.000000
50.075803 3.000000
50.095285 2.000000
50.114767 2.000000
50.134250 1.000000
50.153732 1.000000
50.173215 2.000000
50.192697 2.000000
50.212179 0.000001
50.231662 3.000000
50.251144 2.000000
50.270626 3.000000
50.290109 0.000001
50.309591 2.000000
50.329074 4.000000
50.348556 1.000000
50.368038 1.000000
50.387521 2.000000
50.407003 0.000001
50.426485 2.000000
50.445968 5.000000
50.465450 1.000000
50.484932 7.000000
50.504415 1.000000
50.523897 4.000000
50.543380 3.000000
50.562862 4.000000
50.582344 2.000000
50.601827 5.000000
50.621309 2.000000
50.640791 2.000000
50.660274 2.000000
50.679756 2.000000
50.699239 3.000000
50.718721 0.000001
50.738203 1.000000
50.757686 3.000000
50.777168 3.000000
50.796650 4.000000
50.816133 2.000000
50.835615 2.000000
50.855097 3.000000
50.874580 1.000000
50.894062 2.000000
50.913545 2.000000
50.933027 2.000000
50.952509 5.000000
50.971992 3.000000
50.991474 4.000000
51.010956 1.000000
51.030439 0.000001
51.049921 3.000000
51.069404 2.000000
51.088886 1.000000
51.108368 3.000000
51.127851 2.000000
51.147333 1.000000
51.166815 1.000000
51.186298 2.000000
51.205780 1.000000
51.225262 2.000000
51.244745 1.000000
51.264227 3.000000
51.283710 2.000000
51.303192 5.000000
51.322674 2.000000
51.342157 5.000000
51.361639 3.000000
51.381121 5.000000
51.400604 3.000000
51.420086 3.000000
51.439569 2.000000
51.459051 5.000000
51.478533 1.000000
51.498016 2.000000
51.517498 1.000000
51.536980 0.000001
51.556463 3.000000
51.575945 1.000000
51.595427 3.000000
51.614910 3.000000
51.634392 3.000000
51.653875 0.000001
51.673357 5.000000
51.692839 1.000000
51.712322 3.000000
51.731804 2.000000
51.751286 3.000000
51.770769 2.000000
51.790251 3.000000
51.809734 3.000000
51.829216 3.000000
51.848698 0.000001
51.868181 4.000000
51.887663 2.000000
51.907145 3.000000
51.926628 1.000000
51.946110 2.000000
51.965593 1.000000
51.985075 1.000000
52.004557 2.000000
52.024040 2.000000
52.043522 3.000000
52.063004 1.000000
52.082487 1.000000
52.101969 2.000000
52.121451 2.000000
52.140934 2.000000
52.160416 4.000000
52.179899 1.000000
52.199381 5.000000
52.218863 0.000001
52.238346 2.000000
52.257828 1.000000
52.277310 3.000000
52.296793 1.000000
52.316275 3.000000
52.335758 3.000000
52.355240 4.000000
52.374722 2.000000
52.394205 1.000000
52.413687 0.000001
52.433169 1.000000
52.452652 1.000000
52.472134 1.000000
52.491616 4.000000
52.511099 0.000001
52.530581 1.000000
52.550064 0.000001
52.569546 3.000000
52.589028 5.000000
52.608511 1.000000
52.627993 5.000000
52.647475 2.000000
52.666958 2.000000
52.686440 1.000000
52.705923 1.000000
52.725405 3.000000
52.744887 1.000000
52.764370 4.000000
52.783852 3.000000
52.803334 4.000000
52.822817 0.000001
52.842299 1.000000
52.861781 1.000000
52.881264 0.000001
52.900746 2.000000
52.920229 3.000000
52.939711 1.000000
52.959193 1.000000
52.978676 0.000001
52.998158 1.000000
53.017640 4.000000
53.037123 0.000001
53.056605 2.000000
53.076088 2.000000
53.095570 1.000000
53.115052 3.000000
53.134535 4.000000
53.154017 2.000000
53.173499 3.000000
53.192982 4.000000
53.212464 1.000000
53.231946 2.000000
53.251429 2.000000
53.270911 4.000000
53.290394 2.000000
53.309876 2.000000
53.329358 2.000000
53.348841 5.000000
53.368323 1.000000
53.387805 3.000000
53.407288 0.000001
53.426770 2.000000
53.446253 2.000000
53.465735 1.000000
53.485217 3.000000
53.504700 0.000001
53.524182 3.000000
53.543664 2.000000
53.563147 3.000000
53.582629 3.000000
53.602112 3.000000
53.621594 0.000001
53.641076 1.000000
53.660559 3.000000
53.680041 1.000000
53.699523 4.000000
53.719006 2.000000
53.738488 3.000000
53.757970 1.000000
53.777453 2.000000
53.796935 2.000000
53.816418 2.000000
53.835900 3.000000
53.855382 1.000000
53.874865 3.000000
53.894347 0.000001
53.913829 1.000000
53.933312 4.000000
53.952794 2.000000
53.972277 2.000000
53.991759 2.000000
54.011241 1.000000
54.030724 1.000000
54.050206 1.000000
54.069688 4.000000
54.089171 3.000000
54.108653 1.000000
54.128135 0.000001
54.147618 2.000000
54.167100 3.000000
54.186583 4.000000
54.206065 0.000001
54.225547 2.000000
54.245030 1.000000
54.264512 0.000001
54.283994 0.000001
54.303477 0.000001
54.322959 4.000000
54.342442 1.000000
54.361924 2.000000
54.381406 1.000000
54.400889 3.000000
54.420371 4.000000
54.439853 3.000000
54.459336 2.000000
54.478818 2.000000
54.498300 0.000001
54.517783 1.000000
54.537265 1.000000
54.556748 3.000000
54.576230 0.000001
54.595712 2.000000
54.615195 0.000001
54.634677 1.000000
54.654159 3.000000
54.673642 1.000000
54.693124 2.000000
54.712607 0.000001
54.732089 2.000000
54.751571 2.000000
54.771054 2.000000
54.790536 1.000000
54.810018 3.000000
54.829501 4.000000
54.848983 2.000000
54.868465 5.000000
54.887948 4.000000
54.907430 2.000000
54.926913 5.000000
54.946395 2.000000
54.965877 3.000000
54.985360 0.000001
55.004842 1.000000
55.024324 0.000001
55.043807 2.000000
55.063289 3.000000
55.082772 1.000000
55.102254 1.000000
55.121736 0.000001
55.141219 1.000000
55.160701 3.000000
55.180183 0.000001
55.199666 3.000000
55.219148 2.000000
55.238630 2.000000
55.258113 2.000000
55.277595 0.000001
55.297078 0.000001
55.316560 3.000000
55.336042 0.000001
55.355525 2.000000
55.375007 0.000001
55.394489 2.000000
55.413972 1.000000
55.433454 2.000000
55.452937 3.000000
55.472419 3.000000
55.491901 2.000000
55.511384 1.000000
55.530866 1.000000
55.550348 2.000000
55.569831 1.000000
55.589313 3.000000
55.608796 3.000000
55.628278 1.000000
55.647760 3.000000
55.667243 6.000000
55.686725 0.000001
55.706207 2.000000
55.725690 1.000000
55.745172 2.000000
55.764654 3.000000
55.784137 4.000000
55.803619 0.000001
55.823102 0.000001
55.842584 3.000000
55.862066 0.000001
55.881549 3.000000
55.901031 1.000000
55.920513 1.000000
55.939996 2.000000
55.959478 2.000000
55.978961 6.000000
55.998443 2.000000
56.017925 4.000000
56.037408 0.000001
56.056890 1.000000
56.076372 2.000000
56.095855 0.000001
56.115337 0.000001
56.134819 4.000000
56.154302 1.000000
56.173784 2.000000
56.193267 1.000000
56.212749 3.000000
56.232231 0.000001
56.251714 2.000000
56.271196 5.000000
56.290678 1.000000
56.310161 2.000000
56.329643 2.000000
56.349126 7.000000
56.368608 4.000000
56.388090 3.000000
56.407573 2.000000
56.427055 5.000000
56.446537 2.000000
56.466020 5.000000
56.485502 6.000000
56.504984 6.000000
56.524467 13.000000
56.543949 14.000000
56.563432 14.000000
56.582914 12.000000
56.602396 4.000000
56.621879 7.000000
56.641361 4.000000
56.660843 8.000000
56.680326 7.000000
56.699808 10.000000
56.719291 7.000000
56.738773 7.000000
56.758255 4.000000
56.777738 2.000000
56.797220 4.000000
56.816702 5.000000
56.836185 3.000000
56.855667 1.000000
56.875149 1.000000
56.894632 1.000000
56.914114 0.000001
56.933597 2.000000
56.953079 3.000000
56.972561 4.000000
56.992044 4.000000
57.011526 4.000000
57.031008 2.000000
57.050491 2.000000
57.069973 2.000000
57.089456 3.000000
57.108938 2.000000
57.128420 2.000000
57.147903 5.000000
57.167385 6.000000
57.186867 5.000000
57.206350 3.000000
57.225832 6.000000
57.245315 3.000000
57.264797 7.000000
57.284279 8.000000
57.303762 8.000000
57.323244 8.000000
57.342726 15.000000
57.362209 20.000000
57.381691 13.000000
57.401173 26.000000
57.420656 16.000000
57.440138 11.000000
57.459621 14.000000
57.479103 17.000000
57.498585 13.000000
57.518068 17.000000
57.537550 11.000000
57.557032 15.000000
57.576515 10.000000
57.595997 4.000000
57.615480 6.000000
57.634962 5.000000
57.654444 3.000000
57.673927 6.000000
57.693409 1.000000
57.712891 5.000000
57.732374 4.000000
57.751856 6.000000
57.771338 5.000000
57.790821 0.000001
57.810303 1.000000
57.829786 2.000000
57.849268 5.000000
57.868750 4.000000
57.888233 1.000000
57.907715 1.000000
57.927197 2.000000
57.946680 6.000000
57.966162 5.000000
57.985645 1.000000
58.005127 2.000000
58.024609 4.000000
58.044092 2.000000
58.063574 7.000000
58.083056 7.000000
58.102539 5.000000
58.122021 3.000000
58.141503 2.000000
58.160986 4.000000
58.180468 1.000000
58.199951 4.000000
58.219433 7.000000
58.238915 3.000000
58.258398 5.000000
58.277880 2.000000
58.297362 5.000000
58.316845 1.000000
58.336327 3.000000
58.355810 3.000000
58.375292 4.000000
58.394774 2.000000
58.414257 1.000000
58.433739 4.000000
58.453221 3.000000
58.472704 1.000000
58.492186 2.000000
58.511668 4.000000
58.531151 3.000000
58.550633 2.000000
58.570116 3.000000
58.589598 4.000000
58.609080 2.000000
58.628563 0.000001
58.648045 4.000000
58.667527 1.000000
58.687010 2.000000
58.706492 2.000000
58.725975 3.000000
58.745457 2.000000
58.764939 3.000000
58.784422 0.000001
58.803904 2.000000
58.823386 1.000000
58.842869 1.000000
58.862351 2.000000
58.881834 1.000000
58.901316 2.000000
58.920798 3.000000
58.940281 3.000000
58.959763 2.000000
58.979245 2.000000
58.998728 2.000000
59.018210 4.000000
59.037692 1.000000
59.057175 1.000000
59.076657 0.000001
59.096140 1.000000
59.115622 2.000000
59.135104 2.000000
59.154587 0.000001
59.174069 3.000000
59.193551 0.000001
59.213034 1.000000
59.232516 2.000000
59.251999 1.000000
59.271481 3.000000
59.290963 0.000001
59.310446 2.000000
59.329928 0.000001
59.349410 1.000000
59.368893 1.000000
59.388375 2.000000
59.407857 0.000001
59.427340 0.000001
59.446822 3.000000
59.466305 3.000000
59.485787 3.000000
59.505269 4.000000
59.524752 3.000000
59.544234 3.000000
59.563716 5.000000
59.583199 2.000000
59.602681 2.000000
59.622164 3.000000
59.641646 1.000000
59.661128 0.000001
59.680611 2.000000
59.700093 0.000001
59.719575 3.000000
59.739058 2.000000
59.758540 1.000000
59.778022 1.000000
59.797505 0.000001
59.816987 3.000000
59.836470 1.000000
59.855952 6.000000
59.875434 3.000000
59.894917 2.000000
59.914399 3.000000
59.933881 2.000000
59.953364 3.000000
59.972846 2.000000
59.992329 2.000000
60.011811 3.000000
60.031293 1.000000
60.050776 1.000000
60.070258 2.000000
60.089740 3.000000
60.109223 4.000000
60.128705 4.000000
60.148187 5.000000
60.167670 0.000001
60.187152 1.000000
60.206635 3.000000
60.226117 1.000000
60.245599 2.000000
60.265082 3.000000
60.284564 1.000000
60.304046 2.000000
60.323529 4.000000
60.343011 2.000000
60.362494 2.000000
60.381976 6.000000
60.401458 2.000000
60.420941 3.000000
60.440423 3.000000
60.459905 1.000000
60.479388 4.000000
60.498870 2.000000
60.518352 3.000000
60.537835 2.000000
60.557317 3.000000
60.576800 5.000000
60.596282 14.000000
60.615764 14.000000
60.635247 17.000000
60.654729 24.000000
60.674211 16.000000
60.693694 19.000000
60.713176 9.000000
60.732659 5.000000
60.752141 10.000000
60.771623 10.000000
60.791106 10.000000
60.810588 13.000000
60.830070 13.000000
60.849553 21.000000
60.869035 6.000000
60.888518 9.000000
60.908000 9.000000
60.927482 6.000000
60.946965 17.000000
60.966447 5.000000
60.985929 10.000000
61.005412 21.000000
61.024894 14.000000
61.044376 5.000000
61.063859 10.000000
61.083341 6.000000
61.102824 8.000000
61.122306 10.000000
61.141788 10.000000
61.161271 6.000000
61.180753 10.000000
61.200235 9.000000
61.219718 4.000000
61.239200 4.000000
61.258683 3.000000
61.278165 6.000000
61.297647 10.000000
61.317130 12.000000
61.336612 14.000000
61.356094 10.000000
61.375577 15.000000
61.395059 11.000000
61.414541 7.000000
61.434024 14.000000
61.453506 8.000000
61.472989 2.000000
61.492471 6.000000
61.511953 7.000000
61.531436 13.000000
61.550918 7.000000
61.570400 7.000000
61.589883 6.000000
61.609365 8.000000
61.628848 4.000000
61.648330 1.000000
61.667812 0.000001
61.687295 3.000000
61.706777 1.000000
61.726259 2.000000
61.745742 1.000000
61.765224 0.000001
61.784706 0.000001
61.804189 3.000000
61.823671 2.000000
61.843154 3.000000
61.862636 4.000000
61.882118 1.000000
61.901601 4.000000
61.921083 4.000000
61.940565 1.000000
61.960048 4.000000
61.979530 2.000000
61.999013 3.000000
62.018495 4.000000
62.037977 2.000000
62.057460 6.000000
62.076942 0.000001
62.096424 0.000001
62.115907 0.000001
62.135389 1.000000
62.154871 3.000000
62.174354 1.000000
62.193836 3.000000
62.213319 1.000000
62.232801 1.000000
62.252283 3.000000
62.271766 2.000000
62.291248 1.000000
62.310730 1.000000
62.330213 2.000000
62.349695 0.000001
62.369178 0.000001
62.388660 3.000000
62.408142 0.000001
62.427625 3.000000
62.447107 6.000000
62.466589 2.000000
62.486072 2.000000
62.505554 2.000000
62.525037 4.000000
62.544519 1.000000
62.564001 4.000000
62.583484 0.000001
62.602966 1.000000
62.622448 1.000000
62.641931 1.000000
62.661413 4.000000
62.680895 1.000000
62.700378 2.000000
62.719860 5.000000
62.739343 1.000000
62.758825 2.000000
62.778307 2.000000
62.797790 2.000000
62.817272 5.000000
62.836754 1.000000
62.856237 2.000000
62.875719 2.000000
62.895202 7.000000
62.914684 4.000000
62.934166 1.000000
62.953649 6.000000
62.973131 5.000000
62.992613 1.000000
63.012096 7.000000
63.031578 13.000000
63.051060 8.000000
63.070543 4.000000
63.090025 9.000000
63.109508 11.000000
63.128990 5.000000
63.148472 6.000000
63.167955 6.000000
63.187437 0.000001
63.206919 5.000000
63.226402 2.000000
63.245884 3.000000
63.265367 7.000000
63.284849 3.000000
63.304331 4.000000
63.323814 4.000000
63.343296 1.000000
63.362778 2.000000
63.382261 2.000000
63.401743 5.000000
63.421225 6.000000
63.440708 1.000000
63.460190 1.000000
63.479673 2.000000
63.499155 4.000000
63.518637 3.000000
63.538120 5.000000
63.557602 1.000000
63.577084 4.000000
63.596567 1.000000
63.616049 2.000000
63.635532 2.000000
63.655014 4.000000
63.674496 1.000000
63.693979 2.000000
63.713461 0.000001
63.732943 0.000001
63.752426 3.000000
63.771908 1.000000
63.791390 0.000001
63.810873 2.000000
63.830355 3.000000
63.849838 3.000000
63.869320 2.000000
63.888802 1.000000
63.908285 1.000000
63.927767 2.000000
63.947249 3.000000
63.966732 1.000000
63.986214 0.000001
64.005697 0.000001
64.025179 2.000000
64.044661 2.000000
64.064144 1.000000
64.083626 1.000000
64.103108 1.000000
64.122591 5.000000
64.142073 4.000000
64.161556 1.000000
64.181038 1.000000
64.200520 6.000000
64.220003 3.000000
64.239485 0.000001
64.258967 0.000001
64.278450 3.000000
64.297932 4.000000
64.317414 2.000000
64.336897 0.000001
64.356379 3.000000
64.375862 3.000000
64.395344 0.000001
64.414826 3.000000
64.434309 2.000000
64.453791 4.000000
64.473273 4.000000
64.492756 2.000000
64.512238 5.000000
64.531721 5.000000
64.551203 6.000000
64.570685 8.000000
64.590168 9.000000
64.609650 17.000000
64.629132 19.000000
64.648615 15.000000
64.668097 21.000000
64.687579 25.000000
64.707062 11.000000
64.726544 15.000000
64.746027 10.000000
64.765509 6.000000
64.784991 15.000000
64.804474 8.000000
64.823956 7.000000
64.843438 12.000000
64.862921 11.000000
64.882403 6.000000
64.901886 10.000000
64.921368 9.000000
64.940850 5.000000
64.960333 3.000000
64.979815 2.000000
64.999297 5.000000
65.018780 5.000000
65.038262 5.000000
65.057744 1.000000
65.077227 1.000000
65.096709 4.000000
65.116192 2.000000
65.135674 1.000000
65.155156 5.000000
65.174639 4.000000
65.194121 5.000000
65.213603 5.000000
65.233086 3.000000
65.252568 2.000000
65.272051 5.000000
65.291533 0.000001
65.311015 5.000000
65.330498 3.000000
65.349980 2.000000
65.369462 1.000000
65.388945 3.000000
65.408427 1.000000
65.427909 3.000000
65.447392 4.000000
65.466874 2.000000
65.486357 3.000000
65.505839 5.000000
65.525321 10.000000
65.544804 8.000000
65.564286 10.000000
65.583768 14.000000
65.603251 13.000000
65.622733 13.000000
65.642216 13.000000
65.661698 8.000000
65.681180 5.000000
65.700663 7.000000
65.720145 3.000000
65.739627 8.000000
65.759110 11.000000
65.778592 9.000000
65.798075 6.000000
65.817557 8.000000
65.837039 9.000000
65.856522 3.000000
65.876004 9.000000
65.895486 2.000000
65.914969 5.000000
65.934451 6.000000
65.953933 1.000000
65.973416 0.000001
65.992898 2.000000
66.012381 4.000000
66.031863 3.000000
66.051345 1.000000
66.070828 1.000000
66.090310 5.000000
66.109792 1.000000
66.129275 1.000000
66.148757 7.000000
66.168240 2.000000
66.187722 3.000000
66.207204 5.000000
66.226687 0.000001
66.246169 2.000000
66.265651 1.000000
66.285134 4.000000
66.304616 3.000000
66.324098 2.000000
66.343581 2.000000
66.363063 2.000000
66.382546 3.000000
66.402028 1.000000
66.421510 1.000000
66.440993 2.000000
66.460475 2.000000
66.479957 2.000000
66.499440 4.000000
66.518922 1.000000
66.538405 1.000000
66.557887 1.000000
66.577369 1.000000
66.596852 3.000000
66.616334 3.000000
66.635816 2.000000
66.655299 3.000000
66.674781 1.000000
66.694263 3.000000
66.713746 2.000000
66.733228 1.000000
66.752711 1.000000
66.772193 2.000000
66.791675 1.000000
66.811158 1.000000
66.830640 1.000000
66.850122 1.000000
66.869605 0.000001
66.889087 1.000000
66.908570 0.000001
66.928052 2.000000
66.947534 2.000000
66.967017 0.000001
66.986499 3.000000
67.005981 1.000000
67.025464 2.000000
67.044946 2.000000
67.064428 1.000000
67.083911 1.000000
67.103393 3.000000
67.122876 0.000001
67.142358 1.000000
67.161840 1.000000
67.181323 1.000000
67.200805 1.000000
67.220287 3.000000
67.239770 2.000000
67.259252 2.000000
67.278735 1.000000
67.298217 4.000000
67.317699 2.000000
67.337182 2.000000
67.356664 2.000000
67.376146 0.000001
67.395629 5.000000
67.415111 4.000000
67.434593 0.000001
67.454076 1.000000
67.473558 2.000000
67.493041 2.000000
67.512523 1.000000
67.532005 3.000000
67.551488 1.000000
67.570970 2.000000
67.590452 0.000001
67.609935 1.000000
67.629417 1.000000
67.648900 1.000000
67.668382 0.000001
67.687864 1.000000
67.707347 4.000000
67.726829 3.000000
67.746311 2.000000
67.765794 1.000000
67.785276 3.000000
67.804759 3.000000
67.824241 2.000000
67.843723 0.000001
67.863206 1.000000
67.882688 2.000000
67.902170 1.000000
67.921653 1.000000
67.941135 4.000000
67.960617 3.000000
67.980100 4.000000
67.999582 2.000000
68.019065 0.000001
68.038547 1.000000
68.058029 1.000000
68.077512 0.000001
68.096994 2.000000
68.116476 0.000001
68.135959 5.000000
68.155441 1.000000
68.174924 2.000000
68.194406 0.000001
68.213888 0.000001
68.233371 1.000000
68.252853 3.000000
68.272335 0.000001
68.291818 1.000000
68.311300 3.000000
68.330782 1.000000
68.350265 1.000000
68.369747 2.000000
68.389230 1.000000
68.408712 3.000000
68.428194 0.000001
68.447677 4.000000
68.467159 3.000000
68.486641 3.000000
68.506124 0.000001
68.525606 3.000000
68.545089 1.000000
68.564571 0.000001
68.584053 0.000001
68.603536 0.000001
68.623018 2.000000
68.642500 1.000000
68.661983 3.000000
68.681465 0.000001
68.700947 1.000000
68.720430 2.000000
68.739912 0.000001
68.759395 5.000000
68.778877 1.000000
68.798359 2.000000
68.817842 1.000000
68.837324 3.000000
68.856806 1.000000
68.876289 3.000000
68.895771 1.000000
68.915254 3.000000
68.934736 4.000000
68.954218 2.000000
68.973701 2.000000
68.993183 1.000000
69.012665 2.000000
69.032148 5.000000
69.051630 4.000000
69.071112 4.000000
69.090595 2.000000
69.110077 3.000000
69.129560 11.000000
69.149042 10.000000
69.168524 8.000000
69.188007 10.000000
69.207489 9.000000
69.226971 5.000000
69.246454 2.000000
69.265936 5.000000
69.285419 8.000000
69.304901 4.000000
69.324383 3.000000
69.343866 5.000000
69.363348 5.000000
69.382830 1.000000
69.402313 2.000000
69.421795 6.000000
69.441278 2.000000
69.460760 2.000000
69.480242 1.000000
69.499725 1.000000
69.519207 0.000001
69.538689 1.000000
69.558172 2.000000
69.577654 2.000000
69.597136 2.000000
69.616619 1.000000
69.636101 2.000000
69.655584 2.000000
69.675066 2.000000
69.694548 7.000000
69.714031 0.000001
69.733513 2.000000
69.752995 2.000000
69.772478 5.000000
69.791960 1.000000
69.811443 1.000000
69.830925 1.000000
69.850407 1.000000
69.869890 5.000000
69.889372 2.000000
69.908854 2.000000
69.928337 2.000000
69.947819 4.000000
69.967301 2.000000
69.986784 0.000001
70.006266 3.000000
70.025749 3.000000
