4.000000 255.000000
4.019482 213.000000
4.038965 236.000000
4.058447 206.000000
4.077929 211.000000
4.097412 208.000000
4.116894 221.000000
4.136377 217.000000
4.155859 219.000000
4.175341 209.000000
4.194824 203.000000
4.214306 230.000000
4.233788 189.000000
4.253271 226.000000
4.272753 191.000000
4.292236 169.000000
4.311718 200.000000
4.331200 175.000000
4.350683 203.000000
4.370165 203.000000
4.389647 204.000000
4.409130 176.000000
4.428612 166.000000
4.448094 148.000000
4.467577 164.000000
4.487059 165.000000
4.506542 149.000000
4.526024 150.000000
4.545506 176.000000
4.564989 143.000000
4.584471 165.000000
4.603953 157.000000
4.623436 156.000000
4.642918 159.000000
4.662401 150.000000
4.681883 158.000000
4.701365 136.000000
4.720848 144.000000
4.740330 137.000000
4.759812 131.000000
4.779295 134.000000
4.798777 137.000000
4.818259 134.000000
4.837742 147.000000
4.857224 144.000000
4.876707 151.000000
4.896189 138.000000
4.915671 146.000000
4.935154 138.000000
4.954636 111.000000
4.974118 130.000000
4.993601 132.000000
5.013083 136.000000
5.032566 119.000000
5.052048 118.000000
5.071530 119.000000
5.091013 116.000000
5.110495 117.000000
5.129977 114.000000
5.149460 111.000000
5.168942 121.000000
5.188425 140.000000
5.207907 115.000000
5.227389 125.000000
5.246872 110.000000
5.266354 108.000000
5.285836 122.000000
5.305319 115.000000
5.324801 117.000000
5.344283 114.000000
5.363766 117.000000
5.383248 101.000000
5.402731 117.000000
5.422213 111.000000
5.441695 115.000000
5.461178 102.000000
5.480660 86.000000
5.500142 95.000000
5.519625 103.000000
5.539107 87.000000
5.558590 106.000000
5.578072 97.000000
5.597554 86.000000
5.617037 98.000000
5.636519 79.000000
5.656001 88.000000
5.675484 89.000000
5.694966 72.000000
5.714448 93.000000
5.733931 79.000000
5.753413 78.000000
5.772896 102.000000
5.792378 101.000000
5.811860 81.000000
5.831343 71.000000
5.850825 98.000000
5.870307 82.000000
5.889790 92.000000
5.909272 86.000000
5.928755 98.000000
5.948237 72.000000
5.967719 88.000000
5.987202 89.000000
6.006684 66.000000
6.026166 76.000000
6.045649 76.000000
6.065131 88.000000
6.084613 88.000000
6.104096 89.000000
6.123578 69.000000
6.143061 79.000000
6.162543 85.000000
6.182025 68.000000
6.201508 67.000000
6.220990 81.000000
6.240472 70.000000
6.259955 66.000000
6.279437 66.000000
6.298920 80.000000
6.318402 78.000000
6.337884 70.000000
6.357367 63.000000
6.376849 72.000000
6.396331 81.000000
6.415814 71.000000
6.435296 71.000000
6.454778 71.000000
6.474261 58.000000
6.493743 74.000000
6.513226 63.000000
6.532708 78.000000
6.552190 83.000000
6.571673 63.000000
6.591155 81.000000
6.610637 66.000000
6.630120 62.000000
6.649602 66.000000
6.669085 66.000000
6.688567 63.000000
6.708049 73.000000
6.727532 58.000000
6.747014 66.000000
6.766496 75.000000
6.785979 75.000000
6.805461 73.000000
6.824944 62.000000
6.844426 60.000000
6.863908 59.000000
6.883391 63.000000
6.902873 56.000000
6.922355 54.000000
6.941838 85.000000
6.961320 52.000000
6.980802 56.000000
7.000285 69.000000
7.019767 62.000000
7.039250 61.000000
7.058732 71.000000
7.078214 62.000000
7.097697 56.000000
7.117179 67.000000
7.136661 60.000000
7.156144 72.000000
7.175626 59.000000
7.195109 57.000000
7.214591 55.000000
7.234073 56.000000
7.253556 50.000000
7.273038 71.000000
7.292520 62.000000
7.312003 72.000000
7.331485 50.000000
7.350967 80.000000
7.370450 56.000000
7.389932 64.000000
7.409415 51.000000
7.428897 66.000000
7.448379 46.000000
7.467862 62.000000
7.487344 65.000000
7.506826 56.000000
7.526309 66.000000
7.545791 50.000000
7.565274 56.000000
7.584756 52.000000
7.604238 50.000000
7.623721 55.000000
7.643203 54.000000
7.662685 76.000000
7.682168 56.000000
7.701650 34.000000
7.721132 51.000000
7.740615 62.000000
7.760097 57.000000
7.779580 46.000000
7.799062 52.000000
7.818544 52.000000
7.838027 61.000000
7.857509 57.000000
7.876991 49.000000
7.896474 63.000000
7.915956 58.000000
7.935439 50.000000
7.954921 47.000000
7.974403 61.000000
7.993886 41.000000
8.013368 51.000000
8.032850 44.000000
8.052333 70.000000
8.071815 48.000000
8.091297 59.000000
8.110780 54.000000
8.130262 47.000000
8.149745 47.000000
8.169227 54.000000
8.188709 57.000000
8.208192 48.000000
8.227674 49.000000
8.247156 51.000000
8.266639 51.000000
8.286121 40.000000
8.305604 45.000000
8.325086 48.000000
8.344568 55.000000
8.364051 48.000000
8.383533 43.000000
8.403015 50.000000
8.422498 54.000000
8.441980 50.000000
8.461463 41.000000
8.480945 49.000000
8.500427 42.000000
8.519910 48.000000
8.539392 49.000000
8.558874 55.000000
8.578357 47.000000
8.597839 45.000000
8.617321 56.000000
8.636804 50.000000
8.656286 41.000000
8.675769 33.000000
8.695251 47.000000
8.714733 50.000000
8.734216 57.000000
8.753698 43.000000
8.773180 51.000000
8.792663 52.000000
8.812145 52.000000
8.831628 49.000000
8.851110 35.000000
8.870592 36.000000
8.890075 60.000000
8.909557 51.000000
8.929039 34.000000
8.948522 59.000000
8.968004 50.000000
8.987486 41.000000
9.006969 47.000000
9.026451 47.000000
9.045934 39.000000
9.065416 55.000000
9.084898 44.000000
9.104381 35.000000
9.123863 49.000000
9.143345 49.000000
9.162828 61.000000
9.182310 53.000000
9.201793 41.000000
9.221275 62.000000
9.240757 45.000000
9.260240 38.000000
9.279722 40.000000
9.299204 36.000000
9.318687 41.000000
9.338169 55.000000
9.357651 54.000000
9.377134 56.000000
9.396616 40.000000
9.416099 41.000000
9.435581 65.000000
9.455063 42.000000
9.474546 43.000000
9.494028 36.000000
9.513510 47.000000
9.532993 55.000000
9.552475 42.000000
9.571958 49.000000
9.591440 41.000000
9.610922 45.000000
9.630405 34.000000
9.649887 44.000000
9.669369 39.000000
9.688852 50.000000
9.708334 42.000000
9.727816 53.000000
9.747299 54.000000
9.766781 44.000000
9.786264 37.000000
9.805746 41.000000
9.825228 49.000000
9.844711 38.000000
9.864193 38.000000
9.883675 60.000000
9.903158 52.000000
9.922640 47.000000
9.942123 36.000000
9.961605 39.000000
9.981087 47.000000
10.000570 54.000000
10.020052 44.000000
10.039534 40.000000
10.059017 47.000000
10.078499 52.000000
10.097982 46.000000
10.117464 44.000000
10.136946 49.000000
10.156429 51.000000
10.175911 43.000000
10.195393 48.000000
10.214876 51.000000
10.234358 56.000000
10.253840 38.000000
10.273323 59.000000
10.292805 57.000000
10.312288 47.000000
10.331770 52.000000
10.351252 47.000000
10.370735 55.000000
10.390217 47.000000
10.409699 43.000000
10.429182 50.000000
10.448664 51.000000
10.468147 45.000000
10.487629 44.000000
10.507111 31.000000
10.526594 37.000000
10.546076 35.000000
10.565558 28.000000
10.585041 44.000000
10.604523 40.000000
10.624005 42.000000
10.643488 38.000000
10.662970 53.000000
10.682453 44.000000
10.701935 46.000000
10.721417 58.000000
10.740900 38.000000
10.760382 45.000000
10.779864 38.000000
10.799347 28.000000
10.818829 38.000000
10.838312 53.000000
10.857794 40.000000
10.877276 51.000000
10.896759 50.000000
10.916241 42.000000
10.935723 34.000000
10.955206 40.000000
10.974688 43.000000
10.994170 37.000000
11.013653 44.000000
11.033135 48.000000
11.052618 46.000000
11.072100 53.000000
11.091582 36.000000
11.111065 47.000000
11.130547 39.000000
11.150029 54.000000
11.169512 45.000000
11.188994 50.000000
11.208477 43.000000
11.227959 41.000000
11.247441 42.000000
11.266924 39.000000
11.286406 35.000000
11.305888 45.000000
11.325371 42.000000
11.344853 30.000000
11.364335 50.000000
11.383818 43.000000
11.403300 43.000000
11.422783 38.000000
11.442265 49.000000
11.461747 41.000000
11.481230 43.000000
11.500712 45.000000
11.520194 38.000000
11.539677 50.000000
11.559159 51.000000
11.578642 38.000000
11.598124 41.000000
11.617606 38.000000
11.637089 55.000000
11.656571 39.000000
11.676053 44.000000
11.695536 35.000000
11.715018 43.000000
11.734500 43.000000
11.753983 42.000000
11.773465 50.000000
11.792948 39.000000
11.812430 47.000000
11.831912 38.000000
11.851395 44.000000
11.870877 46.000000
11.890359 39.000000
11.909842 45.000000
11.929324 35.000000
11.948807 40.000000
11.968289 45.000000
11.987771 50.000000
12.007254 52.000000
12.026736 49.000000
12.046218 46.000000
12.065701 49.000000
12.085183 48.000000
12.104666 46.000000
12.124148 39.000000
12.143630 45.000000
12.163113 54.000000
12.182595 29.000000
12.202077 46.000000
12.221560 43.000000
12.241042 48.000000
12.260524 43.000000
12.280007 52.000000
12.299489 39.000000
12.318972 36.000000
12.338454 44.000000
12.357936 43.000000
12.377419 43.000000
12.396901 39.000000
12.416383 41.000000
12.435866 48.000000
12.455348 43.000000
12.474831 51.000000
12.494313 44.000000
12.513795 38.000000
12.533278 38.000000
12.552760 38.000000
12.572242 49.000000
12.591725 43.000000
12.611207 42.000000
12.630689 42.000000
12.650172 34.000000
12.669654 42.000000
12.689137 35.000000
12.708619 44.000000
12.728101 36.000000
12.747584 49.000000
12.767066 41.000000
12.786548 34.000000
12.806031 31.000000
12.825513 39.000000
12.844996 40.000000
12.864478 40.000000
12.883960 39.000000
12.903443 52.000000
12.922925 30.000000
12.942407 44.000000
12.961890 47.000000
12.981372 33.000000
13.000854 33.000000
13.020337 49.000000
13.039819 49.000000
13.059302 31.000000
13.078784 46.000000
13.098266 50.000000
13.117749 34.000000
13.137231 43.000000
13.156713 38.000000
13.176196 45.000000
13.195678 45.000000
13.215161 41.000000
13.234643 48.000000
13.254125 51.000000
13.273608 59.000000
13.293090 41.000000
13.312572 47.000000
13.332055 47.000000
13.351537 35.000000
13.371019 52.000000
13.390502 38.000000
13.409984 31.000000
13.429467 36.000000
13.448949 39.000000
13.468431 34.000000
13.487914 48.000000
13.507396 34.000000
13.526878 42.000000
13.546361 36.000000
13.565843 37.000000
13.585326 28.000000
13.604808 28.000000
13.624290 48.000000
13.643773 33.000000
13.663255 43.000000
13.682737 39.000000
13.702220 40.000000
13.721702 38.000000
13.741185 38.000000
13.760667 40.000000
13.780149 32.000000
13.799632 34.000000
13.819114 26.000000
13.838596 34.000000
13.858079 34.000000
13.877561 39.000000
13.897043 34.000000
13.916526 42.000000
13.936008 45.000000
13.955491 34.000000
13.974973 40.000000
13.994455 29.000000
14.013938 35.000000
14.033420 38.000000
14.052902 35.000000
14.072385 33.000000
14.091867 35.000000
14.111350 33.000000
14.130832 29.000000
14.150314 26.000000
14.169797 32.000000
14.189279 50.000000
14.208761 35.000000
14.228244 30.000000
14.247726 36.000000
14.267208 24.000000
14.286691 48.000000
14.306173 23.000000
14.325656 45.000000
14.345138 44.000000
14.364620 33.000000
14.384103 42.000000
14.403585 37.000000
14.423067 32.000000
14.442550 40.000000
14.462032 35.000000
14.481515 31.000000
14.500997 29.000000
14.520479 27.000000
14.539962 33.000000
14.559444 34.000000
14.578926 37.000000
14.598409 27.000000
14.617891 41.000000
14.637373 28.000000
14.656856 42.000000
14.676338 43.000000
14.695821 33.000000
14.715303 40.000000
14.734785 34.000000
14.754268 30.000000
14.773750 38.000000
14.793232 31.000000
14.812715 24.000000
14.832197 28.000000
14.851680 37.000000
14.871162 39.000000
14.890644 33.000000
14.910127 46.000000
14.929609 40.000000
14.949091 25.000000
14.968574 33.000000
14.988056 37.000000
15.007538 30.000000
15.027021 42.000000
15.046503 37.000000
15.065986 38.000000
15.085468 36.000000
15.104950 22.000000
15.124433 33.000000
15.143915 31.000000
15.163397 42.000000
15.182880 34.000000
15.202362 24.000000
15.221845 28.000000
15.241327 41.000000
15.260809 39.000000
15.280292 29.000000
15.299774 28.000000
15.319256 44.000000
15.338739 37.000000
15.358221 33.000000
15.377704 38.000000
15.397186 48.000000
15.416668 28.000000
15.436151 31.000000
15.455633 23.000000
15.475115 44.000000
15.494598 36.000000
15.514080 32.000000
15.533562 33.000000
15.553045 25.000000
15.572527 28.000000
15.592010 30.000000
15.611492 37.000000
15.630974 21.000000
15.650457 29.000000
15.669939 34.000000
15.689421 35.000000
15.708904 26.000000
15.728386 30.000000
15.747869 36.000000
15.767351 30.000000
15.786833 36.000000
15.806316 35.000000
15.825798 27.000000
15.845280 28.000000
15.864763 33.000000
15.884245 30.000000
15.903727 22.000000
15.923210 33.000000
15.942692 33.000000
15.962175 31.000000
15.981657 34.000000
16.001139 42.000000
16.020622 36.000000
16.040104 36.000000
16.059586 28.000000
16.079069 38.000000
16.098551 34.000000
16.118034 25.000000
16.137516 29.000000
16.156998 25.000000
16.176481 30.000000
16.195963 31.000000
16.215445 30.000000
16.234928 37.000000
16.254410 32.000000
16.273892 24.000000
16.293375 28.000000
16.312857 28.000000
16.332340 33.000000
16.351822 36.000000
16.371304 38.000000
16.390787 28.000000
16.410269 34.000000
16.429751 43.000000
16.449234 30.000000
16.468716 31.000000
16.488199 15.000000
16.507681 29.000000
16.527163 17.000000
16.546646 26.000000
16.566128 36.000000
16.585610 34.000000
16.605093 31.000000
16.624575 37.000000
16.644057 11.000000
16.663540 37.000000
16.683022 36.000000
16.702505 33.000000
16.721987 37.000000
16.741469 26.000000
16.760952 19.000000
16.780434 25.000000
16.799916 28.000000
16.819399 23.000000
16.838881 23.000000
16.858364 31.000000
16.877846 35.000000
16.897328 23.000000
16.916811 28.000000
16.936293 32.000000
16.955775 23.000000
16.975258 30.000000
16.994740 19.000000
17.014222 19.000000
17.033705 30.000000
17.053187 27.000000
17.072670 20.000000
17.092152 29.000000
17.111634 25.000000
17.131117 34.000000
17.150599 37.000000
17.170081 32.000000
17.189564 17.000000
17.209046 26.000000
17.228529 33.000000
17.248011 27.000000
17.267493 25.000000
17.286976 22.000000
17.306458 34.000000
17.325940 23.000000
17.345423 17.000000
17.364905 26.000000
17.384388 29.000000
17.403870 36.000000
17.423352 34.000000
17.442835 28.000000
17.462317 29.000000
17.481799 23.000000
17.501282 28.000000
17.520764 29.000000
17.540246 31.000000
17.559729 18.000000
17.579211 21.000000
17.598694 26.000000
17.618176 24.000000
17.637658 38.000000
17.657141 30.000000
17.676623 24.000000
17.696105 32.000000
17.715588 28.000000
17.735070 41.000000
17.754553 38.000000
17.774035 19.000000
17.793517 22.000000
17.813000 27.000000
17.832482 24.000000
17.851964 18.000000
17.871447 23.000000
17.890929 27.000000
17.910411 29.000000
17.929894 18.000000
17.949376 25.000000
17.968859 28.000000
17.988341 27.000000
18.007823 20.000000
18.027306 25.000000
18.046788 36.000000
18.066270 23.000000
18.085753 26.000000
18.105235 34.000000
18.124718 30.000000
18.144200 21.000000
18.163682 24.000000
18.183165 28.000000
18.202647 25.000000
18.222129 29.000000
18.241612 20.000000
18.261094 28.000000
18.280576 34.000000
18.300059 36.000000
18.319541 28.000000
18.339024 29.000000
18.358506 31.000000
18.377988 26.000000
18.397471 28.000000
18.416953 29.000000
18.436435 26.000000
18.455918 16.000000
18.475400 22.000000
18.494883 19.000000
18.514365 24.000000
18.533847 19.000000
18.553330 24.000000
18.572812 17.000000
18.592294 18.000000
18.611777 33.000000
18.631259 16.000000
18.650741 30.000000
18.670224 28.000000
18.689706 23.000000
18.709189 20.000000
18.728671 35.000000
18.748153 31.000000
18.767636 25.000000
18.787118 15.000000
18.806600 30.000000
18.826083 15.000000
18.845565 25.000000
18.865048 16.000000
18.884530 25.000000
18.904012 26.000000
18.923495 28.000000
18.942977 27.000000
18.962459 19.000000
18.981942 23.000000
19.001424 22.000000
19.020907 15.000000
19.040389 31.000000
19.059871 24.000000
19.079354 18.000000
19.098836 22.000000
19.118318 22.000000
19.137801 22.000000
19.157283 25.000000
19.176765 25.000000
19.196248 35.000000
19.215730 22.000000
19.235213 24.000000
19.254695 28.000000
19.274177 24.000000
19.293660 25.000000
19.313142 19.000000
19.332624 20.000000
19.352107 32.000000
19.371589 22.000000
19.391072 22.000000
19.410554 27.000000
19.430036 24.000000
19.449519 17.000000
19.469001 28.000000
19.488483 26.000000
19.507966 23.000000
19.527448 23.000000
19.546930 21.000000
19.566413 24.000000
19.585895 26.000000
19.605378 29.000000
19.624860 22.000000
19.644342 24.000000
19.663825 33.000000
19.683307 25.000000
19.702789 26.000000
19.722272 24.000000
19.741754 19.000000
19.761237 21.000000
19.780719 15.000000
19.800201 28.000000
19.819684 19.000000
19.839166 32.000000
19.858648 17.000000
19.878131 22.000000
19.897613 24.000000
19.917095 27.000000
19.936578 21.000000
19.956060 26.000000
19.975543 30.000000
19.995025 15.000000
20.014507 22.000000
20.033990 33.000000
20.053472 22.000000
20.072954 21.000000
20.092437 23.000000
20.111919 13.000000
20.131402 24.000000
20.150884 22.000000
20.170366 23.000000
20.189849 25.000000
20.209331 27.000000
20.228813 26.000000
20.248296 24.000000
20.267778 24.000000
20.287260 25.000000
20.306743 22.000000
20.326225 27.000000
20.345708 18.000000
20.365190 18.000000
20.384672 25.000000
20.404155 13.000000
20.423637 25.000000
20.443119 27.000000
20.462602 16.000000
20.482084 31.000000
20.501567 21.000000
20.521049 19.000000
20.540531 19.000000
20.560014 26.000000
20.579496 25.000000
20.598978 24.000000
20.618461 14.000000
20.637943 14.000000
20.657426 25.000000
20.676908 20.000000
20.696390 29.000000
20.715873 25.000000
20.735355 33.000000
20.754837 21.000000
20.774320 17.000000
20.793802 24.000000
20.813284 25.000000
20.832767 27.000000
20.852249 24.000000
20.871732 21.000000
20.891214 23.000000
20.910696 25.000000
20.930179 25.000000
20.949661 22.000000
20.969143 26.000000
20.988626 37.000000
21.008108 25.000000
21.027591 29.000000
21.047073 14.000000
21.066555 27.000000
21.086038 27.000000
21.105520 20.000000
21.125002 23.000000
21.144485 30.000000
21.163967 21.000000
21.183449 22.000000
21.202932 33.000000
21.222414 19.000000
21.241897 28.000000
21.261379 22.000000
21.280861 24.000000
21.300344 21.000000
21.319826 25.000000
21.339308 25.000000
21.358791 17.000000
21.378273 23.000000
21.397756 22.000000
21.417238 26.000000
21.436720 17.000000
21.456203 13.000000
21.475685 19.000000
21.495167 21.000000
21.514650 16.000000
21.534132 14.000000
21.553614 19.000000
21.573097 19.000000
21.592579 14.000000
21.612062 20.000000
21.631544 19.000000
21.651026 14.000000
21.670509 21.000000
21.689991 13.000000
21.709473 12.000000
21.728956 15.000000
21.748438 29.000000
21.767921 17.000000
21.787403 22.000000
21.806885 15.000000
21.826368 23.000000
21.845850 23.000000
21.865332 21.000000
21.884815 26.000000
21.904297 19.000000
21.923779 16.000000
21.943262 17.000000
21.962744 17.000000
21.982227 23.000000
22.001709 21.000000
22.021191 22.000000
22.040674 22.000000
22.060156 22.000000
22.079638 27.000000
22.099121 15.000000
22.118603 22.000000
22.138086 19.000000
22.157568 23.000000
22.177050 14.000000
22.196533 29.000000
22.216015 30.000000
22.235497 19.000000
22.254980 16.000000
22.274462 31.000000
22.293945 24.000000
22.313427 20.000000
22.332909 27.000000
22.352392 14.000000
22.371874 22.000000
22.391356 17.000000
22.410839 17.000000
22.430321 27.000000
22.449803 21.000000
22.469286 21.000000
22.488768 19.000000
22.508251 23.000000
22.527733 25.000000
22.547215 19.000000
22.566698 19.000000
22.586180 22.000000
22.605662 21.000000
22.625145 18.000000
22.644627 27.000000
22.664110 19.000000
22.683592 20.000000
22.703074 15.000000
22.722557 31.000000
22.742039 20.000000
22.761521 13.000000
22.781004 13.000000
22.800486 28.000000
22.819968 22.000000
22.839451 24.000000
22.858933 27.000000
22.878416 38.000000
22.897898 28.000000
22.917380 38.000000
22.936863 48.000000
22.956345 67.000000
22.975827 107.000000
22.995310 166.000000
23.014792 236.000000
23.034275 287.000000
23.053757 274.000000
23.073239 233.000000
23.092722 176.000000
23.112204 142.000000
23.131686 86.000000
23.151169 54.000000
23.170651 47.000000
23.190133 38.000000
23.209616 27.000000
23.229098 20.000000
23.248581 35.000000
23.268063 21.000000
23.287545 25.000000
23.307028 26.000000
23.326510 30.000000
23.345992 18.000000
23.365475 27.000000
23.384957 31.000000
23.404440 20.000000
23.423922 13.000000
23.443404 17.000000
23.462887 17.000000
23.482369 29.000000
23.501851 19.000000
23.521334 10.000000
23.540816 19.000000
23.560298 21.000000
23.579781 22.000000
23.599263 17.000000
23.618746 28.000000
23.638228 23.000000
23.657710 17.000000
23.677193 21.000000
23.696675 16.000000
23.716157 16.000000
23.735640 21.000000
23.755122 15.000000
23.774605 19.000000
23.794087 14.000000
23.813569 24.000000
23.833052 18.000000
23.852534 12.000000
23.872016 22.000000
23.891499 21.000000
23.910981 20.000000
23.930463 13.000000
23.949946 17.000000
23.969428 26.000000
23.988911 18.000000
24.008393 20.000000
24.027875 21.000000
24.047358 22.000000
24.066840 24.000000
24.086322 26.000000
24.105805 15.000000
24.125287 22.000000
24.144770 13.000000
24.164252 12.000000
24.183734 19.000000
24.203217 15.000000
24.222699 19.000000
24.242181 17.000000
24.261664 13.000000
24.281146 23.000000
24.300629 20.000000
24.320111 19.000000
24.339593 20.000000
24.359076 14.000000
24.378558 21.000000
24.398040 20.000000
24.417523 14.000000
24.437005 10.000000
24.456487 22.000000
24.475970 11.000000
24.495452 16.000000
24.514935 19.000000
24.534417 21.000000
24.553899 27.000000
24.573382 15.000000
24.592864 22.000000
24.612346 22.000000
24.631829 19.000000
24.651311 17.000000
24.670794 13.000000
24.690276 16.000000
24.709758 28.000000
24.729241 26.000000
24.748723 12.000000
24.768205 13.000000
24.787688 21.000000
24.807170 17.000000
24.826652 15.000000
24.846135 20.000000
24.865617 23.000000
24.885100 19.000000
24.904582 18.000000
24.924064 17.000000
24.943547 19.000000
24.963029 24.000000
24.982511 18.000000
25.001994 22.000000
25.021476 17.000000
25.040959 16.000000
25.060441 25.000000
25.079923 19.000000
25.099406 13.000000
25.118888 13.000000
25.138370 15.000000
25.157853 16.000000
25.177335 24.000000
25.196817 14.000000
25.216300 14.000000
25.235782 16.000000
25.255265 10.000000
25.274747 23.000000
25.294229 11.000000
25.313712 21.000000
25.333194 24.000000
25.352676 20.000000
25.372159 19.000000
25.391641 22.000000
25.411124 17.000000
25.430606 15.000000
25.450088 15.000000
25.469571 17.000000
25.489053 18.000000
25.508535 16.000000
25.528018 23.000000
25.547500 24.000000
25.566982 18.000000
25.586465 17.000000
25.605947 19.000000
25.625430 16.000000
25.644912 21.000000
25.664394 18.000000
25.683877 15.000000
25.703359 18.000000
25.722841 19.000000
25.742324 13.000000
25.761806 15.000000
25.781289 17.000000
25.800771 19.000000
25.820253 12.000000
25.839736 19.000000
25.859218 12.000000
25.878700 22.000000
25.898183 21.000000
25.917665 20.000000
25.937148 16.000000
25.956630 14.000000
25.976112 22.000000
25.995595 22.000000
26.015077 16.000000
26.034559 21.000000
26.054042 16.000000
26.073524 14.000000
26.093006 23.000000
26.112489 11.000000
26.131971 15.000000
26.151454 25.000000
26.170936 22.000000
26.190418 22.000000
26.209901 10.000000
26.229383 19.000000
26.248865 18.000000
26.268348 19.000000
26.287830 21.000000
26.307313 30.000000
26.326795 17.000000
26.346277 16.000000
26.365760 16.000000
26.385242 22.000000
26.404724 17.000000
26.424207 25.000000
26.443689 25.000000
26.463171 30.000000
26.482654 28.000000
26.502136 27.000000
26.521619 29.000000
26.541101 28.000000
26.560583 18.000000
26.580066 22.000000
26.599548 18.000000
26.619030 16.000000
26.638513 25.000000
26.657995 30.000000
26.677478 31.000000
26.696960 24.000000
26.716442 19.000000
26.735925 19.000000
26.755407 25.000000
26.774889 16.000000
26.794372 18.000000
26.813854 13.000000
26.833336 14.000000
26.852819 14.000000
26.872301 21.000000
26.891784 20.000000
26.911266 21.000000
26.930748 25.000000
26.950231 24.000000
26.969713 18.000000
26.989195 22.000000
27.008678 17.000000
27.028160 20.000000
27.047643 12.000000
27.067125 19.000000
27.086607 9.000000
27.106090 15.000000
27.125572 12.000000
27.145054 27.000000
27.164537 16.000000
27.184019 10.000000
27.203501 17.000000
27.222984 19.000000
27.242466 16.000000
27.261949 18.000000
27.281431 20.000000
27.300913 17.000000
27.320396 16.000000
27.339878 14.000000
27.359360 21.000000
27.378843 15.000000
27.398325 18.000000
27.417808 15.000000
27.437290 17.000000
27.456772 9.000000
27.476255 20.000000
27.495737 15.000000
27.515219 15.000000
27.534702 8.000000
27.554184 13.000000
27.573667 22.000000
27.593149 21.000000
27.612631 13.000000
27.632114 21.000000
27.651596 13.000000
27.671078 16.000000
27.690561 24.000000
27.710043 21.000000
27.729525 17.000000
27.749008 24.000000
27.768490 19.000000
27.787973 20.000000
27.807455 21.000000
27.826937 14.000000
27.846420 13.000000
27.865902 18.000000
27.885384 14.000000
27.904867 11.000000
27.924349 13.000000
27.943832 22.000000
27.963314 9.000000
27.982796 13.000000
28.002279 18.000000
28.021761 14.000000
28.041243 13.000000
28.060726 17.000000
28.080208 20.000000
28.099690 14.000000
28.119173 14.000000
28.138655 13.000000
28.158138 11.000000
28.177620 14.000000
28.197102 19.000000
28.216585 20.000000
28.236067 13.000000
28.255549 27.000000
28.275032 22.000000
28.294514 23.000000
28.313997 24.000000
28.333479 21.000000
28.352961 23.000000
28.372444 16.000000
28.391926 28.000000
28.411408 40.000000
28.430891 42.000000
28.450373 38.000000
28.469855 21.000000
28.489338 24.000000
28.508820 20.000000
28.528303 35.000000
28.547785 38.000000
28.567267 29.000000
28.586750 33.000000
28.606232 32.000000
28.625714 23.000000
28.645197 35.000000
28.664679 35.000000
28.684162 34.000000
28.703644 35.000000
28.723126 32.000000
28.742609 38.000000
28.762091 30.000000
28.781573 43.000000
28.801056 29.000000
28.820538 32.000000
28.840020 18.000000
28.859503 22.000000
28.878985 28.000000
28.898468 31.000000
28.917950 43.000000
28.937432 39.000000
28.956915 33.000000
28.976397 27.000000
28.995879 40.000000
29.015362 41.000000
29.034844 48.000000
29.054327 54.000000
29.073809 53.000000
29.093291 48.000000
29.112774 61.000000
29.132256 71.000000
29.151738 83.000000
29.171221 89.000000
29.190703 118.000000
29.210185 133.000000
29.229668 181.000000
29.249150 213.000000
29.268633 298.000000
29.288115 418.000000
29.307597 741.000000
29.327080 1293.000000
29.346562 2493.000000
29.366044 4040.000000
29.385527 4966.000000
29.405009 4488.000000
29.424492 3240.000000
29.443974 2907.000000
29.463456 2746.000000
29.482939 2002.000000
29.502421 1101.000000
29.521903 537.000000
29.541386 267.000000
29.560868 207.000000
29.580351 158.000000
29.599833 141.000000
29.619315 110.000000
29.638798 118.000000
29.658280 75.000000
29.677762 83.000000
29.697245 56.000000
29.716727 43.000000
29.736209 56.000000
29.755692 56.000000
29.775174 57.000000
29.794657 48.000000
29.814139 46.000000
29.833621 62.000000
29.853104 40.000000
29.872586 38.000000
29.892068 28.000000
29.911551 40.000000
29.931033 35.000000
29.950516 33.000000
29.969998 27.000000
29.989480 30.000000
30.008963 26.000000
30.028445 32.000000
30.047927 38.000000
30.067410 29.000000
30.086892 31.000000
30.106374 29.000000
30.125857 24.000000
30.145339 33.000000
30.164822 26.000000
30.184304 29.000000
30.203786 19.000000
30.223269 25.000000
30.242751 25.000000
30.262233 28.000000
30.281716 27.000000
30.301198 27.000000
30.320681 22.000000
30.340163 31.000000
30.359645 26.000000
30.379128 24.000000
30.398610 28.000000
30.418092 24.000000
30.437575 31.000000
30.457057 23.000000
30.476539 27.000000
30.496022 19.000000
30.515504 22.000000
30.534987 23.000000
30.554469 23.000000
30.573951 20.000000
30.593434 30.000000
30.612916 29.000000
30.632398 31.000000
30.651881 26.000000
30.671363 29.000000
30.690846 25.000000
30.710328 18.000000
30.729810 24.000000
30.749293 16.000000
30.768775 39.000000
30.788257 16.000000
30.807740 21.000000
30.827222 23.000000
30.846704 32.000000
30.866187 20.000000
30.885669 24.000000
30.905152 29.000000
30.924634 18.000000
30.944116 20.000000
30.963599 28.000000
30.983081 14.000000
31.002563 21.000000
31.022046 19.000000
31.041528 17.000000
31.061011 18.000000
31.080493 12.000000
31.099975 15.000000
31.119458 22.000000
31.138940 20.000000
31.158422 18.000000
31.177905 16.000000
31.197387 24.000000
31.216870 22.000000
31.236352 24.000000
31.255834 19.000000
31.275317 22.000000
31.294799 23.000000
31.314281 32.000000
31.333764 34.000000
31.353246 43.000000
31.372728 68.000000
31.392211 71.000000
31.411693 108.000000
31.431176 90.000000
31.450658 96.000000
31.470140 81.000000
31.489623 78.000000
31.509105 51.000000
31.528587 58.000000
31.548070 41.000000
31.567552 36.000000
31.587035 27.000000
31.606517 25.000000
31.625999 23.000000
31.645482 29.000000
31.664964 17.000000
31.684446 16.000000
31.703929 19.000000
31.723411 12.000000
31.742893 18.000000
31.762376 27.000000
31.781858 34.000000
31.801341 27.000000
31.820823 19.000000
31.840305 19.000000
31.859788 21.000000
31.879270 19.000000
31.898752 23.000000
31.918235 11.000000
31.937717 24.000000
31.957200 17.000000
31.976682 24.000000
31.996164 10.000000
32.015647 20.000000
32.035129 18.000000
32.054611 20.000000
32.074094 12.000000
32.093576 18.000000
32.113058 21.000000
32.132541 12.000000
32.152023 21.000000
32.171506 19.000000
32.190988 22.000000
32.210470 14.000000
32.229953 14.000000
32.249435 23.000000
32.268917 16.000000
32.288400 18.000000
32.307882 22.000000
32.327365 20.000000
32.346847 17.000000
32.366329 16.000000
32.385812 23.000000
32.405294 18.000000
32.424776 21.000000
32.444259 18.000000
32.463741 12.000000
32.483223 16.000000
32.502706 21.000000
32.522188 15.000000
32.541671 18.000000
32.561153 16.000000
32.580635 21.000000
32.600118 15.000000
32.619600 17.000000
32.639082 16.000000
32.658565 15.000000
32.678047 16.000000
32.697530 14.000000
32.717012 16.000000
32.736494 32.000000
32.755977 16.000000
32.775459 20.000000
32.794941 12.000000
32.814424 10.000000
32.833906 15.000000
32.853389 12.000000
32.872871 23.000000
32.892353 20.000000
32.911836 20.000000
32.931318 19.000000
32.950800 14.000000
32.970283 17.000000
32.989765 20.000000
33.009247 10.000000
33.028730 14.000000
33.048212 13.000000
33.067695 15.000000
33.087177 12.000000
33.106659 17.000000
33.126142 17.000000
33.145624 7.000000
33.165106 16.000000
33.184589 14.000000
33.204071 9.000000
33.223554 21.000000
33.243036 18.000000
33.262518 12.000000
33.282001 17.000000
33.301483 15.000000
33.320965 15.000000
33.340448 18.000000
33.359930 16.000000
33.379412 24.000000
33.398895 11.000000
33.418377 20.000000
33.437860 17.000000
33.457342 11.000000
33.476824 17.000000
33.496307 15.000000
33.515789 15.000000
33.535271 13.000000
33.554754 14.000000
33.574236 17.000000
33.593719 25.000000
33.613201 19.000000
33.632683 16.000000
33.652166 22.000000
33.671648 25.000000
33.691130 11.000000
33.710613 8.000000
33.730095 23.000000
33.749577 26.000000
33.769060 18.000000
33.788542 12.000000
33.808025 18.000000
33.827507 19.000000
33.846989 26.000000
33.866472 17.000000
33.885954 17.000000
33.905436 11.000000
33.924919 9.000000
33.944401 17.000000
33.963884 18.000000
33.983366 21.000000
34.002848 12.000000
34.022331 14.000000
34.041813 24.000000
34.061295 11.000000
34.080778 13.000000
34.100260 20.000000
34.119742 21.000000
34.139225 12.000000
34.158707 16.000000
34.178190 19.000000
34.197672 17.000000
34.217154 19.000000
34.236637 15.000000
34.256119 17.000000
34.275601 14.000000
34.295084 20.000000
34.314566 15.000000
34.334049 11.000000
34.353531 11.000000
34.373013 17.000000
34.392496 9.000000
34.411978 14.000000
34.431460 17.000000
34.450943 10.000000
34.470425 11.000000
34.489908 17.000000
34.509390 17.000000
34.528872 26.000000
34.548355 18.000000
34.567837 19.000000
34.587319 17.000000
34.606802 15.000000
34.626284 19.000000
34.645766 11.000000
34.665249 13.000000
34.684731 11.000000
34.704214 15.000000
34.723696 19.000000
34.743178 11.000000
34.762661 14.000000
34.782143 13.000000
34.801625 14.000000
34.821108 10.000000
34.840590 12.000000
34.860073 7.000000
34.879555 9.000000
34.899037 12.000000
34.918520 17.000000
34.938002 12.000000
34.957484 11.000000
34.976967 20.000000
34.996449 15.000000
35.015931 24.000000
35.035414 10.000000
35.054896 18.000000
35.074379 13.000000
35.093861 12.000000
35.113343 19.000000
35.132826 14.000000
35.152308 13.000000
35.171790 17.000000
35.191273 25.000000
35.210755 11.000000
35.230238 14.000000
35.249720 16.000000
35.269202 20.000000
35.288685 17.000000
35.308167 25.000000
35.327649 18.000000
35.347132 14.000000
35.366614 17.000000
35.386096 19.000000
35.405579 12.000000
35.425061 24.000000
35.444544 20.000000
35.464026 19.000000
35.483508 21.000000
35.502991 19.000000
35.522473 25.000000
35.541955 18.000000
35.561438 18.000000
35.580920 15.000000
35.600403 21.000000
35.619885 16.000000
35.639367 22.000000
35.658850 25.000000
35.678332 15.000000
35.697814 16.000000
35.717297 30.000000
35.736779 27.000000
35.756261 27.000000
35.775744 21.000000
35.795226 27.000000
35.814709 29.000000
35.834191 49.000000
35.853673 48.000000
35.873156 84.000000
35.892638 94.000000
35.912120 151.000000
35.931603 235.000000
35.951085 276.000000
35.970568 278.000000
35.990050 207.000000
36.009532 165.000000
36.029015 179.000000
36.048497 190.000000
36.067979 137.000000
36.087462 116.000000
36.106944 53.000000
36.126426 45.000000
36.145909 41.000000
36.165391 34.000000
36.184874 37.000000
36.204356 26.000000
36.223838 15.000000
36.243321 23.000000
36.262803 31.000000
36.282285 26.000000
36.301768 21.000000
36.321250 18.000000
36.340733 23.000000
36.360215 13.000000
36.379697 17.000000
36.399180 20.000000
36.418662 10.000000
36.438144 20.000000
36.457627 14.000000
36.477109 10.000000
36.496592 21.000000
36.516074 9.000000
36.535556 18.000000
36.555039 15.000000
36.574521 14.000000
36.594003 10.000000
36.613486 17.000000
36.632968 18.000000
36.652450 15.000000
36.671933 11.000000
36.691415 12.000000
36.710898 24.000000
36.730380 9.000000
36.749862 21.000000
36.769345 8.000000
36.788827 21.000000
36.808309 19.000000
36.827792 15.000000
36.847274 15.000000
36.866757 16.000000
36.886239 13.000000
36.905721 10.000000
36.925204 11.000000
36.944686 9.000000
36.964168 18.000000
36.983651 14.000000
37.003133 15.000000
37.022615 17.000000
37.042098 14.000000
37.061580 7.000000
37.081063 16.000000
37.100545 19.000000
37.120027 14.000000
37.139510 17.000000
37.158992 13.000000
37.178474 13.000000
37.197957 13.000000
37.217439 16.000000
37.236922 10.000000
37.256404 21.000000
37.275886 12.000000
37.295369 16.000000
37.314851 24.000000
37.334333 13.000000
37.353816 8.000000
37.373298 13.000000
37.392780 18.000000
37.412263 11.000000
37.431745 10.000000
37.451228 21.000000
37.470710 14.000000
37.490192 10.000000
37.509675 7.000000
37.529157 19.000000
37.548639 17.000000
37.568122 10.000000
37.587604 14.000000
37.607087 10.000000
37.626569 19.000000
37.646051 21.000000
37.665534 13.000000
37.685016 16.000000
37.704498 16.000000
37.723981 9.000000
37.743463 14.000000
37.762945 15.000000
37.782428 13.000000
37.801910 14.000000
37.821393 16.000000
37.840875 10.000000
37.860357 9.000000
37.879840 12.000000
37.899322 10.000000
37.918804 12.000000
37.938287 10.000000
37.957769 10.000000
37.977252 14.000000
37.996734 9.000000
38.016216 13.000000
38.035699 10.000000
38.055181 12.000000
38.074663 17.000000
38.094146 18.000000
38.113628 22.000000
38.133111 16.000000
38.152593 13.000000
38.172075 11.000000
38.191558 12.000000
38.211040 11.000000
38.230522 17.000000
38.250005 9.000000
38.269487 21.000000
38.288969 16.000000
38.308452 23.000000
38.327934 19.000000
38.347417 15.000000
38.366899 18.000000
38.386381 17.000000
38.405864 11.000000
38.425346 13.000000
38.444828 12.000000
38.464311 18.000000
38.483793 13.000000
38.503276 12.000000
38.522758 22.000000
38.542240 11.000000
38.561723 18.000000
38.581205 11.000000
38.600687 14.000000
38.620170 13.000000
38.639652 7.000000
38.659134 12.000000
38.678617 13.000000
38.698099 21.000000
38.717582 18.000000
38.737064 14.000000
38.756546 10.000000
38.776029 14.000000
38.795511 17.000000
38.814993 19.000000
38.834476 15.000000
38.853958 19.000000
38.873441 15.000000
38.892923 7.000000
38.912405 12.000000
38.931888 20.000000
38.951370 17.000000
38.970852 18.000000
38.990335 17.000000
39.009817 21.000000
39.029299 20.000000
39.048782 17.000000
39.068264 42.000000
39.087747 25.000000
39.107229 17.000000
39.126711 24.000000
39.146194 30.000000
39.165676 24.000000
39.185158 35.000000
39.204641 28.000000
39.224123 49.000000
39.243606 48.000000
39.263088 46.000000
39.282570 64.000000
39.302053 94.000000
39.321535 168.000000
39.341017 245.000000
39.360500 345.000000
39.379982 461.000000
39.399464 501.000000
39.418947 436.000000
39.438429 349.000000
39.457912 272.000000
39.477394 314.000000
39.496876 313.000000
39.516359 265.000000
39.535841 196.000000
39.555323 138.000000
39.574806 72.000000
39.594288 62.000000
39.613771 41.000000
39.633253 38.000000
39.652735 33.000000
39.672218 34.000000
39.691700 16.000000
39.711182 28.000000
39.730665 29.000000
39.750147 16.000000
39.769630 21.000000
39.789112 18.000000
39.808594 22.000000
39.828077 25.000000
39.847559 21.000000
39.867041 23.000000
39.886524 18.000000
39.906006 18.000000
39.925488 14.000000
39.944971 13.000000
39.964453 15.000000
39.983936 14.000000
40.003418 20.000000
40.022900 20.000000
40.042383 15.000000
40.061865 11.000000
40.081347 18.000000
40.100830 18.000000
40.120312 18.000000
40.139795 16.000000
40.159277 18.000000
40.178759 9.000000
40.198242 18.000000
40.217724 4.000000
40.237206 10.000000
40.256689 14.000000
40.276171 14.000000
40.295653 15.000000
40.315136 12.000000
40.334618 9.000000
40.354101 11.000000
40.373583 10.000000
40.393065 18.000000
40.412548 10.000000
40.432030 12.000000
40.451512 16.000000
40.470995 12.000000
40.490477 12.000000
40.509960 19.000000
40.529442 12.000000
40.548924 16.000000
40.568407 14.000000
40.587889 14.000000
40.607371 9.000000
40.626854 16.000000
40.646336 15.000000
40.665818 13.000000
40.685301 9.000000
40.704783 13.000000
40.724266 13.000000
40.743748 12.000000
40.763230 6.000000
40.782713 11.000000
40.802195 9.000000
40.821677 16.000000
40.841160 9.000000
40.860642 12.000000
40.880125 14.000000
40.899607 12.000000
40.919089 16.000000
40.938572 8.000000
40.958054 21.000000
40.977536 14.000000
40.997019 16.000000
41.016501 7.000000
41.035983 14.000000
41.055466 15.000000
41.074948 14.000000
41.094431 15.000000
41.113913 10.000000
41.133395 17.000000
41.152878 16.000000
41.172360 11.000000
41.191842 13.000000
41.211325 12.000000
41.230807 8.000000
41.250290 16.000000
41.269772 16.000000
41.289254 23.000000
41.308737 21.000000
41.328219 11.000000
41.347701 14.000000
41.367184 13.000000
41.386666 14.000000
41.406149 11.000000
41.425631 19.000000
41.445113 12.000000
41.464596 22.000000
41.484078 18.000000
41.503560 14.000000
41.523043 18.000000
41.542525 16.000000
41.562007 12.000000
41.581490 8.000000
41.600972 21.000000
41.620455 16.000000
41.639937 14.000000
41.659419 11.000000
41.678902 17.000000
41.698384 10.000000
41.717866 19.000000
41.737349 13.000000
41.756831 6.000000
41.776314 17.000000
41.795796 16.000000
41.815278 20.000000
41.834761 15.000000
41.854243 14.000000
41.873725 14.000000
41.893208 16.000000
41.912690 12.000000
41.932172 12.000000
41.951655 8.000000
41.971137 19.000000
41.990620 22.000000
42.010102 17.000000
42.029584 17.000000
42.049067 21.000000
42.068549 15.000000
42.088031 17.000000
42.107514 16.000000
42.126996 12.000000
42.146479 14.000000
42.165961 13.000000
42.185443 14.000000
42.204926 16.000000
42.224408 9.000000
42.243890 18.000000
42.263373 16.000000
42.282855 18.000000
42.302337 12.000000
42.321820 18.000000
42.341302 23.000000
42.360785 17.000000
42.380267 13.000000
42.399749 16.000000
42.419232 17.000000
42.438714 11.000000
42.458196 13.000000
42.477679 17.000000
42.497161 7.000000
42.516644 18.000000
42.536126 20.000000
42.555608 13.000000
42.575091 17.000000
42.594573 17.000000
42.614055 21.000000
42.633538 13.000000
42.653020 16.000000
42.672502 26.000000
42.691985 13.000000
42.711467 16.000000
42.730950 17.000000
42.750432 19.000000
42.769914 24.000000
42.789397 16.000000
42.808879 25.000000
42.828361 15.000000
42.847844 16.000000
42.867326 22.000000
42.886809 24.000000
42.906291 16.000000
42.925773 32.000000
42.945256 21.000000
42.964738 31.000000
42.984220 24.000000
43.003703 45.000000
43.023185 41.000000
43.042667 58.000000
43.062150 81.000000
43.081632 148.000000
43.101115 225.000000
43.120597 380.000000
43.140079 390.000000
43.159562 396.000000
43.179044 322.000000
43.198526 197.000000
43.218009 238.000000
43.237491 223.000000
43.256974 243.000000
43.276456 190.000000
43.295938 160.000000
43.315421 98.000000
43.334903 64.000000
43.354385 50.000000
43.373868 42.000000
43.393350 24.000000
43.412833 29.000000
43.432315 30.000000
43.451797 18.000000
43.471280 30.000000
43.490762 24.000000
43.510244 17.000000
43.529727 17.000000
43.549209 20.000000
43.568691 21.000000
43.588174 21.000000
43.607656 14.000000
43.627139 20.000000
43.646621 15.000000
43.666103 19.000000
43.685586 14.000000
43.705068 16.000000
43.724550 25.000000
43.744033 13.000000
43.763515 12.000000
43.782998 12.000000
43.802480 14.000000
43.821962 8.000000
43.841445 14.000000
43.860927 17.000000
43.880409 24.000000
43.899892 14.000000
43.919374 12.000000
43.938856 9.000000
43.958339 17.000000
43.977821 10.000000
43.997304 15.000000
44.016786 12.000000
44.036268 10.000000
44.055751 21.000000
44.075233 10.000000
44.094715 8.000000
44.114198 23.000000
44.133680 16.000000
44.153163 13.000000
44.172645 14.000000
44.192127 15.000000
44.211610 14.000000
44.231092 17.000000
44.250574 13.000000
44.270057 11.000000
44.289539 16.000000
44.309021 15.000000
44.328504 16.000000
44.347986 11.000000
44.367469 17.000000
44.386951 14.000000
44.406433 11.000000
44.425916 15.000000
44.445398 16.000000
44.464880 15.000000
44.484363 15.000000
44.503845 16.000000
44.523328 15.000000
44.542810 5.000000
44.562292 13.000000
44.581775 10.000000
44.601257 9.000000
44.620739 11.000000
44.640222 14.000000
44.659704 11.000000
44.679186 19.000000
44.698669 6.000000
44.718151 15.000000
44.737634 10.000000
44.757116 11.000000
44.776598 12.000000
44.796081 23.000000
44.815563 21.000000
44.835045 20.000000
44.854528 14.000000
44.874010 7.000000
44.893493 15.000000
44.912975 7.000000
44.932457 6.000000
44.951940 19.000000
44.971422 16.000000
44.990904 12.000000
45.010387 9.000000
45.029869 16.000000
45.049352 13.000000
45.068834 15.000000
45.088316 11.000000
45.107799 17.000000
45.127281 15.000000
45.146763 13.000000
45.166246 11.000000
45.185728 14.000000
45.205210 10.000000
45.224693 18.000000
45.244175 11.000000
45.263658 9.000000
45.283140 14.000000
45.302622 17.000000
45.322105 6.000000
45.341587 14.000000
45.361069 17.000000
45.380552 12.000000
45.400034 15.000000
45.419517 11.000000
45.438999 16.000000
45.458481 14.000000
45.477964 12.000000
45.497446 10.000000
45.516928 15.000000
45.536411 10.000000
45.555893 18.000000
45.575375 13.000000
45.594858 14.000000
45.614340 11.000000
45.633823 14.000000
45.653305 23.000000
45.672787 10.000000
45.692270 15.000000
45.711752 14.000000
45.731234 16.000000
45.750717 16.000000
45.770199 17.000000
45.789682 19.000000
45.809164 15.000000
45.828646 16.000000
45.848129 12.000000
45.867611 17.000000
45.887093 16.000000
45.906576 19.000000
45.926058 14.000000
45.945540 23.000000
45.965023 19.000000
45.984505 17.000000
46.003988 13.000000
46.023470 14.000000
46.042952 5.000000
46.062435 15.000000
46.081917 16.000000
46.101399 19.000000
46.120882 22.000000
46.140364 19.000000
46.159847 14.000000
46.179329 11.000000
46.198811 15.000000
46.218294 15.000000
46.237776 23.000000
46.257258 17.000000
46.276741 13.000000
46.296223 19.000000
46.315705 11.000000
46.335188 17.000000
46.354670 9.000000
46.374153 14.000000
46.393635 10.000000
46.413117 15.000000
46.432600 14.000000
46.452082 21.000000
46.471564 16.000000
46.491047 13.000000
46.510529 12.000000
46.530012 16.000000
46.549494 14.000000
46.568976 13.000000
46.588459 20.000000
46.607941 12.000000
46.627423 17.000000
46.646906 18.000000
46.666388 22.000000
46.685871 20.000000
46.705353 23.000000
46.724835 13.000000
46.744318 20.000000
46.763800 17.000000
46.783282 15.000000
46.802765 25.000000
46.822247 21.000000
46.841729 18.000000
46.861212 25.000000
46.880694 20.000000
46.900177 18.000000
46.919659 27.000000
46.939141 44.000000
46.958624 42.000000
46.978106 31.000000
46.997588 35.000000
47.017071 54.000000
47.036553 73.000000
47.056036 83.000000
47.075518 89.000000
47.095000 105.000000
47.114483 102.000000
47.133965 100.000000
47.153447 94.000000
47.172930 98.000000
47.192412 90.000000
47.211894 68.000000
47.231377 85.000000
47.250859 68.000000
47.270342 83.000000
47.289824 82.000000
47.309306 73.000000
47.328789 82.000000
47.348271 80.000000
47.367753 87.000000
47.387236 130.000000
47.406718 185.000000
47.426201 255.000000
47.445683 368.000000
47.465165 477.000000
47.484648 562.000000
47.504130 573.000000
47.523612 515.000000
47.543095 467.000000
47.562577 397.000000
47.582059 357.000000
47.601542 347.000000
47.621024 371.000000
47.640507 296.000000
47.659989 242.000000
47.679471 147.000000
47.698954 130.000000
47.718436 87.000000
47.737918 72.000000
47.757401 61.000000
47.776883 49.000000
47.796366 41.000000
47.815848 30.000000
47.835330 32.000000
47.854813 34.000000
47.874295 34.000000
47.893777 37.000000
47.913260 25.000000
47.932742 35.000000
47.952224 22.000000
47.971707 21.000000
47.991189 26.000000
48.010672 24.000000
48.030154 26.000000
48.049636 39.000000
48.069119 24.000000
48.088601 20.000000
48.108083 23.000000
48.127566 23.000000
48.147048 32.000000
48.166531 31.000000
48.186013 15.000000
48.205495 34.000000
48.224978 30.000000
48.244460 37.000000
48.263942 45.000000
48.283425 40.000000
48.302907 42.000000
48.322389 62.000000
48.341872 74.000000
48.361354 79.000000
48.380837 104.000000
48.400319 123.000000
48.419801 191.000000
48.439284 287.000000
48.458766 330.000000
48.478248 463.000000
48.497731 515.000000
48.517213 455.000000
48.536696 394.000000
48.556178 329.000000
48.575660 310.000000
48.595143 293.000000
48.614625 310.000000
48.634107 275.000000
48.653590 240.000000
48.673072 165.000000
48.692555 100.000000
48.712037 76.000000
48.731519 66.000000
48.751002 54.000000
48.770484 55.000000
48.789966 44.000000
48.809449 42.000000
48.828931 30.000000
48.848413 29.000000
48.867896 42.000000
48.887378 28.000000
48.906861 19.000000
48.926343 22.000000
48.945825 26.000000
48.965308 14.000000
48.984790 23.000000
49.004272 18.000000
49.023755 21.000000
49.043237 18.000000
49.062720 25.000000
49.082202 23.000000
49.101684 15.000000
49.121167 16.000000
49.140649 18.000000
49.160131 17.000000
49.179614 23.000000
49.199096 17.000000
49.218578 23.000000
49.238061 17.000000
49.257543 23.000000
49.277026 15.000000
49.296508 24.000000
49.315990 20.000000
49.335473 13.000000
49.354955 13.000000
49.374437 9.000000
49.393920 12.000000
49.413402 9.000000
49.432885 20.000000
49.452367 17.000000
49.471849 17.000000
49.491332 14.000000
49.510814 15.000000
49.530296 16.000000
49.549779 10.000000
49.569261 16.000000
49.588743 9.000000
49.608226 12.000000
49.627708 13.000000
49.647191 8.000000
49.666673 14.000000
49.686155 17.000000
49.705638 21.000000
49.725120 11.000000
49.744602 16.000000
49.764085 11.000000
49.783567 17.000000
49.803050 12.000000
49.822532 13.000000
49.842014 13.000000
49.861497 16.000000
49.880979 8.000000
49.900461 14.000000
49.919944 16.000000
49.939426 15.000000
49.958908 12.000000
49.978391 15.000000
49.997873 17.000000
50.017356 11.000000
50.036838 8.000000
50.056320 15.000000
50.075803 13.000000
50.095285 9.000000
50.114767 13.000000
50.134250 14.000000
50.153732 14.000000
50.173215 9.000000
50.192697 8.000000
50.212179 10.000000
50.231662 15.000000
50.251144 19.000000
50.270626 13.000000
50.290109 19.000000
50.309591 18.000000
50.329074 16.000000
50.348556 14.000000
50.368038 14.000000
50.387521 11.000000
50.407003 16.000000
50.426485 17.000000
50.445968 10.000000
50.465450 10.000000
50.484932 12.000000
50.504415 14.000000
50.523897 17.000000
50.543380 10.000000
50.562862 14.000000
50.582344 16.000000
50.601827 16.000000
50.621309 13.000000
50.640791 14.000000
50.660274 8.000000
50.679756 24.000000
50.699239 12.000000
50.718721 13.000000
50.738203 14.000000
50.757686 17.000000
50.777168 15.000000
50.796650 11.000000
50.816133 16.000000
50.835615 8.000000
50.855097 10.000000
50.874580 10.000000
50.894062 9.000000
50.913545 20.000000
50.933027 14.000000
50.952509 10.000000
50.971992 12.000000
50.991474 13.000000
51.010956 11.000000
51.030439 7.000000
51.049921 15.000000
51.069404 11.000000
51.088886 15.000000
51.108368 13.000000
51.127851 4.000000
51.147333 8.000000
51.166815 15.000000
51.186298 17.000000
51.205780 7.000000
51.225262 13.000000
51.244745 13.000000
51.264227 16.000000
51.283710 16.000000
51.303192 15.000000
51.322674 11.000000
51.342157 16.000000
51.361639 5.000000
51.381121 11.000000
51.400604 17.000000
51.420086 12.000000
51.439569 18.000000
51.459051 10.000000
51.478533 9.000000
51.498016 9.000000
51.517498 12.000000
51.536980 16.000000
51.556463 13.000000
51.575945 9.000000
51.595427 19.000000
51.614910 18.000000
51.634392 4.000000
51.653875 8.000000
51.673357 10.000000
51.692839 9.000000
51.712322 10.000000
51.731804 13.000000
51.751286 14.000000
51.770769 9.000000
51.790251 8.000000
51.809734 14.000000
51.829216 17.000000
51.848698 13.000000
51.868181 15.000000
51.887663 9.000000
51.907145 12.000000
51.926628 10.000000
51.946110 16.000000
51.965593 10.000000
51.985075 9.000000
52.004557 13.000000
52.024040 17.000000
52.043522 14.000000
52.063004 15.000000
52.082487 10.000000
52.101969 13.000000
52.121451 10.000000
52.140934 6.000000
52.160416 14.000000
52.179899 19.000000
52.199381 12.000000
52.218863 11.000000
52.238346 13.000000
52.257828 14.000000
52.277310 13.000000
52.296793 14.000000
52.316275 12.000000
52.335758 12.000000
52.355240 8.000000
52.374722 11.000000
52.394205 9.000000
52.413687 15.000000
52.433169 15.000000
52.452652 12.000000
52.472134 10.000000
52.491616 12.000000
52.511099 9.000000
52.530581 9.000000
52.550064 19.000000
52.569546 7.000000
52.589028 9.000000
52.608511 12.000000
52.627993 14.000000
52.647475 12.000000
52.666958 6.000000
52.686440 6.000000
52.705923 15.000000
52.725405 8.000000
52.744887 9.000000
52.764370 14.000000
52.783852 7.000000
52.803334 7.000000
52.822817 10.000000
52.842299 11.000000
52.861781 13.000000
52.881264 17.000000
52.900746 9.000000
52.920229 9.000000
52.939711 14.000000
52.959193 10.000000
52.978676 12.000000
52.998158 7.000000
53.017640 12.000000
53.037123 8.000000
53.056605 9.000000
53.076088 14.000000
53.095570 17.000000
53.115052 12.000000
53.134535 16.000000
53.154017 12.000000
53.173499 16.000000
53.192982 14.000000
53.212464 9.000000
53.231946 6.000000
53.251429 7.000000
53.270911 12.000000
53.290394 15.000000
53.309876 13.000000
53.329358 13.000000
53.348841 12.000000
53.368323 15.000000
53.387805 12.000000
53.407288 11.000000
53.426770 15.000000
53.446253 10.000000
53.465735 11.000000
53.485217 9.000000
53.504700 14.000000
53.524182 8.000000
53.543664 13.000000
53.563147 8.000000
53.582629 8.000000
53.602112 14.000000
53.621594 17.000000
53.641076 17.000000
53.660559 12.000000
53.680041 10.000000
53.699523 10.000000
53.719006 11.000000
53.738488 8.000000
53.757970 9.000000
53.777453 10.000000
53.796935 7.000000
53.816418 16.000000
53.835900 19.000000
53.855382 23.000000
53.874865 11.000000
53.894347 11.000000
53.913829 10.000000
53.933312 9.000000
53.952794 10.000000
53.972277 14.000000
53.991759 12.000000
54.011241 8.000000
54.030724 7.000000
54.050206 15.000000
54.069688 3.000000
54.089171 12.000000
54.108653 17.000000
54.128135 5.000000
54.147618 11.000000
54.167100 10.000000
54.186583 10.000000
54.206065 12.000000
54.225547 15.000000
54.245030 12.000000
54.264512 20.000000
54.283994 10.000000
54.303477 14.000000
54.322959 9.000000
54.342442 18.000000
54.361924 8.000000
54.381406 12.000000
54.400889 8.000000
54.420371 15.000000
54.439853 10.000000
54.459336 8.000000
54.478818 17.000000
54.498300 15.000000
54.517783 9.000000
54.537265 14.000000
54.556748 17.000000
54.576230 10.000000
54.595712 11.000000
54.615195 13.000000
54.634677 8.000000
54.654159 8.000000
54.673642 18.000000
54.693124 8.000000
54.712607 18.000000
54.732089 14.000000
54.751571 13.000000
54.771054 9.000000
54.790536 12.000000
54.810018 8.000000
54.829501 8.000000
54.848983 12.000000
54.868465 11.000000
54.887948 17.000000
54.907430 14.000000
54.926913 15.000000
54.946395 9.000000
54.965877 11.000000
54.985360 9.000000
55.004842 15.000000
55.024324 9.000000
55.043807 14.000000
55.063289 15.000000
55.082772 10.000000
55.102254 10.000000
55.121736 9.000000
55.141219 4.000000
55.160701 20.000000
55.180183 8.000000
55.199666 10.000000
55.219148 16.000000
55.238630 6.000000
55.258113 13.000000
55.277595 8.000000
55.297078 11.000000
55.316560 15.000000
55.336042 15.000000
55.355525 8.000000
55.375007 10.000000
55.394489 11.000000
55.413972 5.000000
55.433454 9.000000
55.452937 12.000000
55.472419 12.000000
55.491901 10.000000
55.511384 12.000000
55.530866 8.000000
55.550348 14.000000
55.569831 12.000000
55.589313 6.000000
55.608796 10.000000
55.628278 12.000000
55.647760 11.000000
55.667243 8.000000
55.686725 8.000000
55.706207 10.000000
55.725690 15.000000
55.745172 10.000000
55.764654 10.000000
55.784137 15.000000
55.803619 6.000000
55.823102 12.000000
55.842584 8.000000
55.862066 10.000000
55.881549 16.000000
55.901031 10.000000
55.920513 11.000000
55.939996 16.000000
55.959478 10.000000
55.978961 15.000000
55.998443 13.000000
56.017925 13.000000
56.037408 14.000000
56.056890 10.000000
56.076372 19.000000
56.095855 13.000000
56.115337 8.000000
56.134819 10.000000
56.154302 15.000000
56.173784 15.000000
56.193267 12.000000
56.212749 13.000000
56.232231 14.000000
56.251714 8.000000
56.271196 19.000000
56.290678 13.000000
56.310161 13.000000
56.329643 19.000000
56.349126 18.000000
56.368608 15.000000
56.388090 15.000000
56.407573 23.000000
56.427055 30.000000
56.446537 22.000000
56.466020 24.000000
56.485502 33.000000
56.504984 47.000000
56.524467 50.000000
56.543949 67.000000
56.563432 73.000000
56.582914 86.000000
56.602396 50.000000
56.621879 26.000000
56.641361 39.000000
56.660843 46.000000
56.680326 40.000000
56.699808 46.000000
56.719291 37.000000
56.738773 43.000000
56.758255 42.000000
56.777738 25.000000
56.797220 27.000000
56.816702 21.000000
56.836185 11.000000
56.855667 12.000000
56.875149 24.000000
56.894632 17.000000
56.914114 20.000000
56.933597 12.000000
56.953079 14.000000
56.972561 15.000000
56.992044 13.000000
57.011526 18.000000
57.031008 25.000000
57.050491 25.000000
57.069973 13.000000
57.089456 14.000000
57.108938 19.000000
57.128420 19.000000
57.147903 19.000000
57.167385 19.000000
57.186867 19.000000
57.206350 18.000000
57.225832 24.000000
57.245315 29.000000
57.264797 38.000000
57.284279 46.000000
57.303762 43.000000
57.323244 72.000000
57.342726 111.000000
57.362209 127.000000
57.381691 136.000000
57.401173 112.000000
57.420656 117.000000
57.440138 90.000000
57.459621 88.000000
57.479103 61.000000
57.498585 82.000000
57.518068 77.000000
57.537550 92.000000
57.557032 64.000000
57.576515 71.000000
57.595997 61.000000
57.615480 45.000000
57.634962 34.000000
57.654444 22.000000
57.673927 23.000000
57.693409 22.000000
57.712891 21.000000
57.732374 25.000000
57.751856 15.000000
57.771338 19.000000
57.790821 15.000000
57.810303 18.000000
57.829786 18.000000
57.849268 16.000000
57.868750 10.000000
57.888233 14.000000
57.907715 18.000000
57.927197 13.000000
57.946680 16.000000
57.966162 25.000000
57.985645 21.000000
58.005127 26.000000
58.024609 26.000000
58.044092 32.000000
58.063574 39.000000
58.083056 36.000000
58.102539 23.000000
58.122021 26.000000
58.141503 20.000000
58.160986 19.000000
58.180468 25.000000
58.199951 28.000000
58.219433 26.000000
58.238915 19.000000
58.258398 14.000000
58.277880 24.000000
58.297362 18.000000
58.316845 18.000000
58.336327 14.000000
58.355810 9.000000
58.375292 14.000000
58.394774 15.000000
58.414257 12.000000
58.433739 17.000000
58.453221 14.000000
58.472704 20.000000
58.492186 14.000000
58.511668 14.000000
58.531151 12.000000
58.550633 13.000000
58.570116 12.000000
58.589598 12.000000
58.609080 7.000000
58.628563 12.000000
58.648045 17.000000
58.667527 11.000000
58.687010 11.000000
58.706492 6.000000
58.725975 14.000000
58.745457 10.000000
58.764939 6.000000
58.784422 14.000000
58.803904 10.000000
58.823386 13.000000
58.842869 9.000000
58.862351 15.000000
58.881834 9.000000
58.901316 10.000000
58.920798 6.000000
58.940281 7.000000
58.959763 11.000000
58.979245 12.000000
58.998728 8.000000
59.018210 14.000000
59.037692 11.000000
59.057175 4.000000
59.076657 12.000000
59.096140 13.000000
59.115622 10.000000
59.135104 12.000000
59.154587 9.000000
59.174069 14.000000
59.193551 14.000000
59.213034 10.000000
59.232516 10.000000
59.251999 9.000000
59.271481 10.000000
59.290963 13.000000
59.310446 10.000000
59.329928 10.000000
59.349410 11.000000
59.368893 13.000000
59.388375 13.000000
59.407857 13.000000
59.427340 9.000000
59.446822 10.000000
59.466305 10.000000
59.485787 14.000000
59.505269 11.000000
59.524752 7.000000
59.544234 7.000000
59.563716 6.000000
59.583199 10.000000
59.602681 13.000000
59.622164 11.000000
59.641646 4.000000
59.661128 14.000000
59.680611 8.000000
59.700093 10.000000
59.719575 15.000000
59.739058 12.000000
59.758540 13.000000
59.778022 5.000000
59.797505 9.000000
59.816987 10.000000
59.836470 7.000000
59.855952 16.000000
59.875434 8.000000
59.894917 10.000000
59.914399 6.000000
59.933881 19.000000
59.953364 18.000000
59.972846 9.000000
59.992329 16.000000
60.011811 11.000000
60.031293 19.000000
60.050776 13.000000
60.070258 4.000000
60.089740 16.000000
60.109223 17.000000
60.128705 13.000000
60.148187 5.000000
60.167670 10.000000
60.187152 8.000000
60.206635 13.000000
60.226117 20.000000
60.245599 13.000000
60.265082 13.000000
60.284564 12.000000
60.304046 22.000000
60.323529 12.000000
60.343011 12.000000
60.362494 17.000000
60.381976 13.000000
60.401458 13.000000
60.420941 12.000000
60.440423 17.000000
60.459905 22.000000
60.479388 19.000000
60.498870 20.000000
60.518352 18.000000
60.537835 29.000000
60.557317 30.000000
60.576800 50.000000
60.596282 65.000000
60.615764 73.000000
60.635247 99.000000
60.654729 99.000000
60.674211 120.000000
60.693694 94.000000
60.713176 88.000000
60.732659 44.000000
60.752141 57.000000
60.771623 56.000000
60.791106 63.000000
60.810588 80.000000
60.830070 60.000000
60.849553 64.000000
60.869035 64.000000
60.888518 66.000000
60.908000 50.000000
60.927482 75.000000
60.946965 61.000000
60.966447 95.000000
60.985929 88.000000
61.005412 85.000000
61.024894 85.000000
61.044376 53.000000
61.063859 37.000000
61.083341 47.000000
61.102824 36.000000
61.122306 36.000000
61.141788 58.000000
61.161271 57.000000
61.180753 47.000000
61.200235 36.000000
61.219718 51.000000
61.239200 40.000000
61.258683 34.000000
61.278165 42.000000
61.297647 45.000000
61.317130 54.000000
61.336612 64.000000
61.356094 77.000000
61.375577 80.000000
61.395059 81.000000
61.414541 52.000000
61.434024 44.000000
61.453506 46.000000
61.472989 50.000000
61.492471 32.000000
61.511953 50.000000
61.531436 50.000000
61.550918 30.000000
61.570400 36.000000
61.589883 35.000000
61.609365 30.000000
61.628848 24.000000
61.648330 15.000000
61.667812 18.000000
61.687295 11.000000
61.706777 17.000000
61.726259 11.000000
61.745742 13.000000
61.765224 12.000000
61.784706 11.000000
61.804189 11.000000
61.823671 7.000000
61.843154 16.000000
61.862636 13.000000
61.882118 7.000000
61.901601 6.000000
61.921083 15.000000
61.940565 11.000000
61.960048 10.000000
61.979530 14.000000
61.999013 16.000000
62.018495 10.000000
62.037977 17.000000
62.057460 6.000000
62.076942 14.000000
62.096424 8.000000
62.115907 13.000000
62.135389 6.000000
62.154871 11.000000
62.174354 14.000000
62.193836 8.000000
62.213319 9.000000
62.232801 9.000000
62.252283 10.000000
62.271766 11.000000
62.291248 8.000000
62.310730 10.000000
62.330213 13.000000
62.349695 9.000000
62.369178 10.000000
62.388660 12.000000
62.408142 14.000000
62.427625 11.000000
62.447107 14.000000
62.466589 10.000000
62.486072 9.000000
62.505554 4.000000
62.525037 6.000000
62.544519 7.000000
62.564001 7.000000
62.583484 20.000000
62.602966 11.000000
62.622448 9.000000
62.641931 13.000000
62.661413 15.000000
62.680895 8.000000
62.700378 16.000000
62.719860 7.000000
62.739343 11.000000
62.758825 14.000000
62.778307 8.000000
62.797790 12.000000
62.817272 19.000000
62.836754 11.000000
62.856237 13.000000
62.875719 13.000000
62.895202 8.000000
62.914684 22.000000
62.934166 12.000000
62.953649 29.000000
62.973131 27.000000
62.992613 41.000000
63.012096 38.000000
63.031578 48.000000
63.051060 49.000000
63.070543 60.000000
63.090025 43.000000
63.109508 41.000000
63.128990 22.000000
63.148472 24.000000
63.167955 27.000000
63.187437 25.000000
63.206919 26.000000
63.226402 28.000000
63.245884 25.000000
63.265367 29.000000
63.284849 28.000000
63.304331 15.000000
63.323814 22.000000
63.343296 7.000000
63.362778 12.000000
63.382261 16.000000
63.401743 15.000000
63.421225 10.000000
63.440708 7.000000
63.460190 13.000000
63.479673 12.000000
63.499155 10.000000
63.518637 9.000000
63.538120 14.000000
63.557602 12.000000
63.577084 7.000000
63.596567 10.000000
63.616049 10.000000
63.635532 13.000000
63.655014 7.000000
63.674496 10.000000
63.693979 8.000000
63.713461 14.000000
63.732943 11.000000
63.752426 10.000000
63.771908 8.000000
63.791390 13.000000
63.810873 7.000000
63.830355 7.000000
63.849838 11.000000
63.869320 10.000000
63.888802 15.000000
63.908285 13.000000
63.927767 12.000000
63.947249 8.000000
63.966732 7.000000
63.986214 10.000000
64.005697 9.000000
64.025179 14.000000
64.044661 6.000000
64.064144 10.000000
64.083626 19.000000
64.103108 10.000000
64.122591 6.000000
64.142073 13.000000
64.161556 9.000000
64.181038 12.000000
64.200520 15.000000
64.220003 15.000000
64.239485 14.000000
64.258967 22.000000
64.278450 9.000000
64.297932 10.000000
64.317414 8.000000
64.336897 15.000000
64.356379 11.000000
64.375862 4.000000
64.395344 10.000000
64.414826 13.000000
64.434309 20.000000
64.453791 20.000000
64.473273 21.000000
64.492756 24.000000
64.512238 19.000000
64.531721 22.000000
64.551203 41.000000
64.570685 45.000000
64.590168 69.000000
64.609650 82.000000
64.629132 94.000000
64.648615 120.000000
64.668097 129.000000
64.687579 115.000000
64.707062 86.000000
64.726544 75.000000
64.746027 64.000000
64.765509 49.000000
64.784991 71.000000
64.804474 64.000000
64.823956 66.000000
64.843438 65.000000
64.862921 61.000000
64.882403 53.000000
64.901886 46.000000
64.921368 31.000000
64.940850 27.000000
64.960333 19.000000
64.979815 17.000000
64.999297 24.000000
65.018780 20.000000
65.038262 10.000000
65.057744 12.000000
65.077227 12.000000
65.096709 13.000000
65.116192 10.000000
65.135674 19.000000
65.155156 9.000000
65.174639 11.000000
65.194121 9.000000
65.213603 16.000000
65.233086 13.000000
65.252568 7.000000
65.272051 18.000000
65.291533 9.000000
65.311015 16.000000
65.330498 15.000000
65.349980 14.000000
65.369462 12.000000
65.388945 15.000000
65.408427 16.000000
65.427909 19.000000
65.447392 24.000000
65.466874 28.000000
65.486357 26.000000
65.505839 38.000000
65.525321 49.000000
65.544804 59.000000
65.564286 71.000000
65.583768 85.000000
65.603251 93.000000
65.622733 83.000000
65.642216 61.000000
65.661698 58.000000
65.681180 60.000000
65.700663 46.000000
65.720145 41.000000
65.739627 40.000000
65.759110 66.000000
65.778592 43.000000
65.798075 53.000000
65.817557 50.000000
65.837039 41.000000
65.856522 31.000000
65.876004 18.000000
65.895486 22.000000
65.914969 27.000000
65.934451 16.000000
65.953933 12.000000
65.973416 18.000000
65.992898 25.000000
66.012381 18.000000
66.031863 12.000000
66.051345 18.000000
66.070828 14.000000
66.090310 11.000000
66.109792 10.000000
66.129275 9.000000
66.148757 11.000000
66.168240 10.000000
66.187722 7.000000
66.207204 11.000000
66.226687 10.000000
66.246169 9.000000
66.265651 5.000000
66.285134 9.000000
66.304616 11.000000
66.324098 12.000000
66.343581 9.000000
66.363063 15.000000
66.382546 13.000000
66.402028 13.000000
66.421510 6.000000
66.440993 7.000000
66.460475 8.000000
66.479957 17.000000
66.499440 11.000000
66.518922 15.000000
66.538405 9.000000
66.557887 12.000000
66.577369 8.000000
66.596852 9.000000
66.616334 7.000000
66.635816 10.000000
66.655299 6.000000
66.674781 12.000000
66.694263 14.000000
66.713746 8.000000
66.733228 6.000000
66.752711 10.000000
66.772193 16.000000
66.791675 10.000000
66.811158 5.000000
66.830640 10.000000
66.850122 11.000000
66.869605 14.000000
66.889087 10.000000
66.908570 10.000000
66.928052 11.000000
66.947534 7.000000
66.967017 12.000000
66.986499 7.000000
67.005981 9.000000
67.025464 11.000000
67.044946 8.000000
67.064428 9.000000
67.083911 16.000000
67.103393 8.000000
67.122876 5.000000
67.142358 4.000000
67.161840 11.000000
67.181323 6.000000
67.200805 4.000000
67.220287 11.000000
67.239770 7.000000
67.259252 8.000000
67.278735 9.000000
67.298217 10.000000
67.317699 6.000000
67.337182 9.000000
67.356664 11.000000
67.376146 11.000000
67.395629 7.000000
67.415111 11.000000
67.434593 13.000000
67.454076 3.000000
67.473558 3.000000
67.493041 8.000000
67.512523 13.000000
67.532005 4.000000
67.551488 10.000000
67.570970 10.000000
67.590452 11.000000
67.609935 12.000000
67.629417 4.000000
67.648900 8.000000
67.668382 8.000000
67.687864 11.000000
67.707347 13.000000
67.726829 9.000000
67.746311 8.000000
67.765794 13.000000
67.785276 12.000000
67.804759 4.000000
67.824241 9.000000
67.843723 11.000000
67.863206 5.000000
67.882688 11.000000
67.902170 7.000000
67.921653 6.000000
67.941135 8.000000
67.960617 13.000000
67.980100 9.000000
67.999582 10.000000
68.019065 13.000000
68.038547 7.000000
68.058029 8.000000
68.077512 7.000000
68.096994 16.000000
68.116476 11.000000
68.135959 14.000000
68.155441 15.000000
68.174924 9.000000
68.194406 8.000000
68.213888 6.000000
68.233371 14.000000
68.252853 5.000000
68.272335 11.000000
68.291818 12.000000
68.311300 11.000000
68.330782 6.000000
68.350265 12.000000
68.369747 10.000000
68.389230 8.000000
68.408712 12.000000
68.428194 8.000000
68.447677 7.000000
68.467159 15.000000
68.486641 4.000000
68.506124 9.000000
68.525606 5.000000
68.545089 10.000000
68.564571 8.000000
68.584053 6.000000
68.603536 3.000000
68.623018 7.000000
68.642500 10.000000
68.661983 11.000000
68.681465 12.000000
68.700947 9.000000
68.720430 7.000000
68.739912 9.000000
68.759395 9.000000
68.778877 7.000000
68.798359 13.000000
68.817842 6.000000
68.837324 9.000000
68.856806 9.000000
68.876289 10.000000
68.895771 12.000000
68.915254 15.000000
68.934736 6.000000
68.954218 14.000000
68.973701 13.000000
68.993183 6.000000
69.012665 14.000000
69.032148 5.000000
69.051630 9.000000
69.071112 18.000000
69.090595 20.000000
69.110077 25.000000
69.129560 43.000000
69.149042 40.000000
69.168524 44.000000
69.188007 48.000000
69.207489 41.000000
69.226971 45.000000
69.246454 37.000000
69.265936 32.000000
69.285419 32.000000
69.304901 27.000000
69.324383 29.000000
69.343866 23.000000
69.363348 30.000000
69.382830 40.000000
69.402313 26.000000
69.421795 25.000000
69.441278 30.000000
69.460760 15.000000
69.480242 16.000000
69.499725 13.000000
69.519207 12.000000
69.538689 12.000000
69.558172 14.000000
69.577654 13.000000
69.597136 15.000000
69.616619 11.000000
69.636101 9.000000
69.655584 9.000000
69.675066 6.000000
69.694548 9.000000
69.714031 6.000000
69.733513 8.000000
69.752995 8.000000
69.772478 17.000000
69.791960 18.000000
69.811443 7.000000
69.830925 10.000000
69.850407 11.000000
69.869890 9.000000
69.889372 7.000000
69.908854 11.000000
69.928337 6.000000
69.947819 9.000000
69.967301 11.000000
69.986784 17.000000
70.006266 14.000000
70.025749 17.000000
