4.000000 494.000000
4.019482 475.000000
4.038965 484.000000
4.058447 488.000000
4.077929 479.000000
4.097412 441.000000
4.116894 443.000000
4.136377 434.000000
4.155859 415.000000
4.175341 428.000000
4.194824 381.000000
4.214306 421.000000
4.233788 419.000000
4.253271 408.000000
4.272753 404.000000
4.292236 349.000000
4.311718 399.000000
4.331200 368.000000
4.350683 380.000000
4.370165 368.000000
4.389647 344.000000
4.409130 382.000000
4.428612 326.000000
4.448094 357.000000
4.467577 326.000000
4.487059 359.000000
4.506542 345.000000
4.526024 320.000000
4.545506 354.000000
4.564989 342.000000
4.584471 334.000000
4.603953 296.000000
4.623436 289.000000
4.642918 291.000000
4.662401 320.000000
4.681883 294.000000
4.701365 298.000000
4.720848 287.000000
4.740330 310.000000
4.759812 287.000000
4.779295 259.000000
4.798777 274.000000
4.818259 270.000000
4.837742 291.000000
4.857224 264.000000
4.876707 256.000000
4.896189 288.000000
4.915671 263.000000
4.935154 229.000000
4.954636 273.000000
4.974118 239.000000
4.993601 232.000000
5.013083 250.000000
5.032566 251.000000
5.052048 249.000000
5.071530 245.000000
5.091013 261.000000
5.110495 228.000000
5.129977 214.000000
5.149460 217.000000
5.168942 253.000000
5.188425 221.000000
5.207907 235.000000
5.227389 231.000000
5.246872 239.000000
5.266354 222.000000
5.285836 219.000000
5.305319 228.000000
5.324801 198.000000
5.344283 236.000000
5.363766 199.000000
5.383248 190.000000
5.402731 230.000000
5.422213 227.000000
5.441695 176.000000
5.461178 208.000000
5.480660 207.000000
5.500142 209.000000
5.519625 201.000000
5.539107 182.000000
5.558590 191.000000
5.578072 200.000000
5.597554 176.000000
5.617037 190.000000
5.636519 192.000000
5.656001 181.000000
5.675484 186.000000
5.694966 201.000000
5.714448 177.000000
5.733931 167.000000
5.753413 185.000000
5.772896 175.000000
5.792378 169.000000
5.811860 177.000000
5.831343 179.000000
5.850825 185.000000
5.870307 166.000000
5.889790 190.000000
5.909272 181.000000
5.928755 190.000000
5.948237 174.000000
5.967719 167.000000
5.987202 181.000000
6.006684 150.000000
6.026166 180.000000
6.045649 166.000000
6.065131 175.000000
6.084613 153.000000
6.104096 177.000000
6.123578 171.000000
6.143061 180.000000
6.162543 160.000000
6.182025 158.000000
6.201508 174.000000
6.220990 160.000000
6.240472 146.000000
6.259955 148.000000
6.279437 136.000000
6.298920 158.000000
6.318402 181.000000
6.337884 150.000000
6.357367 155.000000
6.376849 145.000000
6.396331 168.000000
6.415814 171.000000
6.435296 142.000000
6.454778 144.000000
6.474261 157.000000
6.493743 140.000000
6.513226 149.000000
6.532708 146.000000
6.552190 133.000000
6.571673 133.000000
6.591155 135.000000
6.610637 143.000000
6.630120 142.000000
6.649602 124.000000
6.669085 107.000000
6.688567 142.000000
6.708049 130.000000
6.727532 117.000000
6.747014 130.000000
6.766496 110.000000
6.785979 137.000000
6.805461 151.000000
6.824944 126.000000
6.844426 123.000000
6.863908 123.000000
6.883391 139.000000
6.902873 109.000000
6.922355 136.000000
6.941838 128.000000
6.961320 123.000000
6.980802 123.000000
7.000285 115.000000
7.019767 121.000000
7.039250 113.000000
7.058732 133.000000
7.078214 121.000000
7.097697 111.000000
7.117179 102.000000
7.136661 133.000000
7.156144 120.000000
7.175626 132.000000
7.195109 136.000000
7.214591 116.000000
7.234073 109.000000
7.253556 120.000000
7.273038 117.000000
7.292520 117.000000
7.312003 112.000000
7.331485 98.000000
7.350967 113.000000
7.370450 114.000000
7.389932 125.000000
7.409415 88.000000
7.428897 119.000000
7.448379 113.000000
7.467862 104.000000
7.487344 93.000000
7.506826 101.000000
7.526309 113.000000
7.545791 112.000000
7.565274 105.000000
7.584756 113.000000
7.604238 114.000000
7.623721 121.000000
7.643203 113.000000
7.662685 111.000000
7.682168 130.000000
7.701650 116.000000
7.721132 108.000000
7.740615 123.000000
7.760097 98.000000
7.779580 99.000000
7.799062 104.000000
7.818544 114.000000
7.838027 93.000000
7.857509 109.000000
7.876991 99.000000
7.896474 92.000000
7.915956 91.000000
7.935439 119.000000
7.954921 126.000000
7.974403 104.000000
7.993886 115.000000
8.013368 112.000000
8.032850 107.000000
8.052333 93.000000
8.071815 106.000000
8.091297 120.000000
8.110780 105.000000
8.130262 106.000000
8.149745 104.000000
8.169227 94.000000
8.188709 115.000000
8.208192 108.000000
8.227674 109.000000
8.247156 112.000000
8.266639 110.000000
8.286121 99.000000
8.305604 92.000000
8.325086 104.000000
8.344568 88.000000
8.364051 100.000000
8.383533 99.000000
8.403015 105.000000
8.422498 87.000000
8.441980 102.000000
8.461463 100.000000
8.480945 104.000000
8.500427 90.000000
8.519910 114.000000
8.539392 106.000000
8.558874 101.000000
8.578357 101.000000
8.597839 111.000000
8.617321 86.000000
8.636804 116.000000
8.656286 97.000000
8.675769 103.000000
8.695251 92.000000
8.714733 99.000000
8.734216 109.000000
8.753698 106.000000
8.773180 121.000000
8.792663 89.000000
8.812145 107.000000
8.831628 93.000000
8.851110 98.000000
8.870592 105.000000
8.890075 94.000000
8.909557 104.000000
8.929039 88.000000
8.948522 96.000000
8.968004 118.000000
8.987486 87.000000
9.006969 83.000000
9.026451 117.000000
9.045934 105.000000
9.065416 95.000000
9.084898 95.000000
9.104381 104.000000
9.123863 100.000000
9.143345 97.000000
9.162828 83.000000
9.182310 93.000000
9.201793 106.000000
9.221275 87.000000
9.240757 75.000000
9.260240 88.000000
9.279722 90.000000
9.299204 94.000000
9.318687 85.000000
9.338169 103.000000
9.357651 72.000000
9.377134 92.000000
9.396616 93.000000
9.416099 101.000000
9.435581 104.000000
9.455063 84.000000
9.474546 92.000000
9.494028 103.000000
9.513510 98.000000
9.532993 102.000000
9.552475 94.000000
9.571958 82.000000
9.591440 114.000000
9.610922 115.000000
9.630405 101.000000
9.649887 113.000000
9.669369 92.000000
9.688852 88.000000
9.708334 89.000000
9.727816 98.000000
9.747299 85.000000
9.766781 95.000000
9.786264 90.000000
9.805746 93.000000
9.825228 82.000000
9.844711 90.000000
9.864193 105.000000
9.883675 95.000000
9.903158 106.000000
9.922640 89.000000
9.942123 101.000000
9.961605 91.000000
9.981087 103.000000
10.000570 103.000000
10.020052 82.000000
10.039534 93.000000
10.059017 96.000000
10.078499 86.000000
10.097982 98.000000
10.117464 97.000000
10.136946 91.000000
10.156429 90.000000
10.175911 73.000000
10.195393 103.000000
10.214876 96.000000
10.234358 91.000000
10.253840 102.000000
10.273323 99.000000
10.292805 92.000000
10.312288 85.000000
10.331770 106.000000
10.351252 91.000000
10.370735 77.000000
10.390217 89.000000
10.409699 105.000000
10.429182 105.000000
10.448664 90.000000
10.468147 91.000000
10.487629 95.000000
10.507111 92.000000
10.526594 107.000000
10.546076 92.000000
10.565558 83.000000
10.585041 114.000000
10.604523 91.000000
10.624005 82.000000
10.643488 92.000000
10.662970 79.000000
10.682453 75.000000
10.701935 97.000000
10.721417 99.000000
10.740900 83.000000
10.760382 68.000000
10.779864 91.000000
10.799347 100.000000
10.818829 94.000000
10.838312 89.000000
10.857794 102.000000
10.877276 77.000000
10.896759 95.000000
10.916241 92.000000
10.935723 77.000000
10.955206 99.000000
10.974688 100.000000
10.994170 81.000000
11.013653 80.000000
11.033135 98.000000
11.052618 83.000000
11.072100 94.000000
11.091582 81.000000
11.111065 67.000000
11.130547 85.000000
11.150029 86.000000
11.169512 95.000000
11.188994 92.000000
11.208477 88.000000
11.227959 95.000000
11.247441 85.000000
11.266924 96.000000
11.286406 87.000000
11.305888 93.000000
11.325371 78.000000
11.344853 99.000000
11.364335 76.000000
11.383818 101.000000
11.403300 69.000000
11.422783 92.000000
11.442265 95.000000
11.461747 97.000000
11.481230 78.000000
11.500712 79.000000
11.520194 89.000000
11.539677 93.000000
11.559159 87.000000
11.578642 89.000000
11.598124 94.000000
11.617606 69.000000
11.637089 77.000000
11.656571 102.000000
11.676053 82.000000
11.695536 97.000000
11.715018 88.000000
11.734500 98.000000
11.753983 93.000000
11.773465 74.000000
11.792948 88.000000
11.812430 83.000000
11.831912 99.000000
11.851395 105.000000
11.870877 84.000000
11.890359 79.000000
11.909842 83.000000
11.929324 90.000000
11.948807 89.000000
11.968289 100.000000
11.987771 93.000000
12.007254 76.000000
12.026736 80.000000
12.046218 77.000000
12.065701 96.000000
12.085183 79.000000
12.104666 69.000000
12.124148 78.000000
12.143630 85.000000
12.163113 79.000000
12.182595 89.000000
12.202077 80.000000
12.221560 82.000000
12.241042 77.000000
12.260524 73.000000
12.280007 88.000000
12.299489 89.000000
12.318972 89.000000
12.338454 79.000000
12.357936 77.000000
12.377419 105.000000
12.396901 89.000000
12.416383 80.000000
12.435866 74.000000
12.455348 90.000000
12.474831 87.000000
12.494313 72.000000
12.513795 68.000000
12.533278 73.000000
12.552760 74.000000
12.572242 70.000000
12.591725 64.000000
12.611207 85.000000
12.630689 88.000000
12.650172 69.000000
12.669654 77.000000
12.689137 69.000000
12.708619 101.000000
12.728101 90.000000
12.747584 74.000000
12.767066 86.000000
12.786548 96.000000
12.806031 84.000000
12.825513 100.000000
12.844996 67.000000
12.864478 79.000000
12.883960 86.000000
12.903443 62.000000
12.922925 94.000000
12.942407 92.000000
12.961890 60.000000
12.981372 84.000000
13.000854 78.000000
13.020337 78.000000
13.039819 84.000000
13.059302 94.000000
13.078784 82.000000
13.098266 77.000000
13.117749 74.000000
13.137231 77.000000
13.156713 91.000000
13.176196 82.000000
13.195678 80.000000
13.215161 90.000000
13.234643 82.000000
13.254125 75.000000
13.273608 71.000000
13.293090 71.000000
13.312572 70.000000
13.332055 70.000000
13.351537 90.000000
13.371019 103.000000
13.390502 87.000000
13.409984 81.000000
13.429467 83.000000
13.448949 68.000000
13.468431 85.000000
13.487914 88.000000
13.507396 74.000000
13.526878 85.000000
13.546361 72.000000
13.565843 66.000000
13.585326 77.000000
13.604808 75.000000
13.624290 79.000000
13.643773 74.000000
13.663255 78.000000
13.682737 84.000000
13.702220 76.000000
13.721702 79.000000
13.741185 70.000000
13.760667 73.000000
13.780149 89.000000
13.799632 95.000000
13.819114 67.000000
13.838596 79.000000
13.858079 69.000000
13.877561 58.000000
13.897043 77.000000
13.916526 79.000000
13.936008 83.000000
13.955491 75.000000
13.974973 75.000000
13.994455 68.000000
14.013938 69.000000
14.033420 78.000000
14.052902 77.000000
14.072385 67.000000
14.091867 85.000000
14.111350 74.000000
14.130832 84.000000
14.150314 76.000000
14.169797 65.000000
14.189279 66.000000
14.208761 82.000000
14.228244 86.000000
14.247726 95.000000
14.267208 80.000000
14.286691 81.000000
14.306173 67.000000
14.325656 78.000000
14.345138 72.000000
14.364620 62.000000
14.384103 59.000000
14.403585 78.000000
14.423067 75.000000
14.442550 67.000000
14.462032 77.000000
14.481515 92.000000
14.500997 81.000000
14.520479 65.000000
14.539962 64.000000
14.559444 66.000000
14.578926 65.000000
14.598409 64.000000
14.617891 71.000000
14.637373 81.000000
14.656856 58.000000
14.676338 76.000000
14.695821 77.000000
14.715303 67.000000
14.734785 75.000000
14.754268 78.000000
14.773750 58.000000
14.793232 61.000000
14.812715 74.000000
14.832197 69.000000
14.851680 67.000000
14.871162 73.000000
14.890644 79.000000
14.910127 78.000000
14.929609 82.000000
14.949091 69.000000
14.968574 76.000000
14.988056 71.000000
15.007538 77.000000
15.027021 65.000000
15.046503 69.000000
15.065986 79.000000
15.085468 66.000000
15.104950 68.000000
15.124433 64.000000
15.143915 65.000000
15.163397 69.000000
15.182880 71.000000
15.202362 86.000000
15.221845 74.000000
15.241327 78.000000
15.260809 71.000000
15.280292 77.000000
15.299774 67.000000
15.319256 73.000000
15.338739 51.000000
15.358221 77.000000
15.377704 62.000000
15.397186 78.000000
15.416668 57.000000
15.436151 63.000000
15.455633 84.000000
15.475115 76.000000
15.494598 52.000000
15.514080 63.000000
15.533562 51.000000
15.553045 65.000000
15.572527 67.000000
15.592010 63.000000
15.611492 61.000000
15.630974 62.000000
15.650457 70.000000
15.669939 67.000000
15.689421 63.000000
15.708904 58.000000
15.728386 88.000000
15.747869 64.000000
15.767351 45.000000
15.786833 56.000000
15.806316 65.000000
15.825798 63.000000
15.845280 72.000000
15.864763 81.000000
15.884245 76.000000
15.903727 74.000000
15.923210 71.000000
15.942692 59.000000
15.962175 75.000000
15.981657 67.000000
16.001139 67.000000
16.020622 71.000000
16.040104 55.000000
16.059586 51.000000
16.079069 61.000000
16.098551 55.000000
16.118034 70.000000
16.137516 64.000000
16.156998 54.000000
16.176481 47.000000
16.195963 59.000000
16.215445 66.000000
16.234928 49.000000
16.254410 69.000000
16.273892 65.000000
16.293375 62.000000
16.312857 61.000000
16.332340 59.000000
16.351822 58.000000
16.371304 73.000000
16.390787 61.000000
16.410269 50.000000
16.429751 72.000000
16.449234 60.000000
16.468716 62.000000
16.488199 68.000000
16.507681 63.000000
16.527163 67.000000
16.546646 72.000000
16.566128 51.000000
16.585610 78.000000
16.605093 52.000000
16.624575 70.000000
16.644057 67.000000
16.663540 58.000000
16.683022 60.000000
16.702505 57.000000
16.721987 55.000000
16.741469 57.000000
16.760952 59.000000
16.780434 51.000000
16.799916 53.000000
16.819399 66.000000
16.838881 55.000000
16.858364 54.000000
16.877846 47.000000
16.897328 60.000000
16.916811 70.000000
16.936293 59.000000
16.955775 55.000000
16.975258 53.000000
16.994740 66.000000
17.014222 63.000000
17.033705 64.000000
17.053187 60.000000
17.072670 50.000000
17.092152 68.000000
17.111634 56.000000
17.131117 52.000000
17.150599 56.000000
17.170081 67.000000
17.189564 53.000000
17.209046 67.000000
17.228529 69.000000
17.248011 55.000000
17.267493 51.000000
17.286976 50.000000
17.306458 49.000000
17.325940 64.000000
17.345423 55.000000
17.364905 46.000000
17.384388 40.000000
17.403870 56.000000
17.423352 51.000000
17.442835 52.000000
17.462317 41.000000
17.481799 71.000000
17.501282 67.000000
17.520764 57.000000
17.540246 45.000000
17.559729 53.000000
17.579211 61.000000
17.598694 48.000000
17.618176 59.000000
17.637658 46.000000
17.657141 49.000000
17.676623 64.000000
17.696105 44.000000
17.715588 65.000000
17.735070 45.000000
17.754553 69.000000
17.774035 63.000000
17.793517 69.000000
17.813000 64.000000
17.832482 46.000000
17.851964 58.000000
17.871447 61.000000
17.890929 51.000000
17.910411 41.000000
17.929894 58.000000
17.949376 62.000000
17.968859 57.000000
17.988341 50.000000
18.007823 49.000000
18.027306 42.000000
18.046788 58.000000
18.066270 53.000000
18.085753 46.000000
18.105235 55.000000
18.124718 49.000000
18.144200 53.000000
18.163682 52.000000
18.183165 44.000000
18.202647 63.000000
18.222129 37.000000
18.241612 49.000000
18.261094 44.000000
18.280576 49.000000
18.300059 47.000000
18.319541 56.000000
18.339024 52.000000
18.358506 48.000000
18.377988 41.000000
18.397471 46.000000
18.416953 65.000000
18.436435 50.000000
18.455918 53.000000
18.475400 37.000000
18.494883 54.000000
18.514365 71.000000
18.533847 36.000000
18.553330 53.000000
18.572812 57.000000
18.592294 57.000000
18.611777 64.000000
18.631259 51.000000
18.650741 67.000000
18.670224 59.000000
18.689706 53.000000
18.709189 55.000000
18.728671 49.000000
18.748153 42.000000
18.767636 40.000000
18.787118 39.000000
18.806600 49.000000
18.826083 41.000000
18.845565 59.000000
18.865048 54.000000
18.884530 57.000000
18.904012 49.000000
18.923495 46.000000
18.942977 55.000000
18.962459 42.000000
18.981942 37.000000
19.001424 49.000000
19.020907 59.000000
19.040389 51.000000
19.059871 54.000000
19.079354 41.000000
19.098836 51.000000
19.118318 51.000000
19.137801 41.000000
19.157283 46.000000
19.176765 50.000000
19.196248 54.000000
19.215730 44.000000
19.235213 55.000000
19.254695 35.000000
19.274177 41.000000
19.293660 54.000000
19.313142 47.000000
19.332624 56.000000
19.352107 34.000000
19.371589 41.000000
19.391072 41.000000
19.410554 57.000000
19.430036 54.000000
19.449519 65.000000
19.469001 44.000000
19.488483 31.000000
19.507966 54.000000
19.527448 50.000000
19.546930 41.000000
19.566413 41.000000
19.585895 56.000000
19.605378 53.000000
19.624860 46.000000
19.644342 45.000000
19.663825 59.000000
19.683307 41.000000
19.702789 53.000000
19.722272 50.000000
19.741754 53.000000
19.761237 42.000000
19.780719 40.000000
19.800201 51.000000
19.819684 61.000000
19.839166 49.000000
19.858648 51.000000
19.878131 56.000000
19.897613 36.000000
19.917095 41.000000
19.936578 34.000000
19.956060 44.000000
19.975543 39.000000
19.995025 49.000000
20.014507 51.000000
20.033990 41.000000
20.053472 50.000000
20.072954 51.000000
20.092437 47.000000
20.111919 39.000000
20.131402 41.000000
20.150884 53.000000
20.170366 40.000000
20.189849 38.000000
20.209331 48.000000
20.228813 51.000000
20.248296 39.000000
20.267778 51.000000
20.287260 54.000000
20.306743 46.000000
20.326225 44.000000
20.345708 52.000000
20.365190 45.000000
20.384672 37.000000
20.404155 42.000000
20.423637 37.000000
20.443119 44.000000
20.462602 59.000000
20.482084 56.000000
20.501567 48.000000
20.521049 37.000000
20.540531 47.000000
20.560014 42.000000
20.579496 37.000000
20.598978 42.000000
20.618461 50.000000
20.637943 37.000000
20.657426 41.000000
20.676908 54.000000
20.696390 48.000000
20.715873 34.000000
20.735355 51.000000
20.754837 42.000000
20.774320 45.000000
20.793802 50.000000
20.813284 38.000000
20.832767 43.000000
20.852249 39.000000
20.871732 38.000000
20.891214 47.000000
20.910696 37.000000
20.930179 42.000000
20.949661 42.000000
20.969143 40.000000
20.988626 57.000000
21.008108 36.000000
21.027591 44.000000
21.047073 33.000000
21.066555 40.000000
21.086038 48.000000
21.105520 49.000000
21.125002 36.000000
21.144485 42.000000
21.163967 51.000000
21.183449 43.000000
21.202932 37.000000
21.222414 36.000000
21.241897 45.000000
21.261379 39.000000
21.280861 31.000000
21.300344 38.000000
21.319826 41.000000
21.339308 42.000000
21.358791 52.000000
21.378273 47.000000
21.397756 37.000000
21.417238 36.000000
21.436720 51.000000
21.456203 53.000000
21.475685 48.000000
21.495167 40.000000
21.514650 40.000000
21.534132 39.000000
21.553614 36.000000
21.573097 50.000000
21.592579 53.000000
21.612062 39.000000
21.631544 32.000000
21.651026 43.000000
21.670509 42.000000
21.689991 34.000000
21.709473 48.000000
21.728956 31.000000
21.748438 28.000000
21.767921 33.000000
21.787403 35.000000
21.806885 39.000000
21.826368 37.000000
21.845850 30.000000
21.865332 41.000000
21.884815 39.000000
21.904297 61.000000
21.923779 46.000000
21.943262 41.000000
21.962744 44.000000
21.982227 43.000000
22.001709 49.000000
22.021191 34.000000
22.040674 45.000000
22.060156 37.000000
22.079638 35.000000
22.099121 45.000000
22.118603 36.000000
22.138086 36.000000
22.157568 29.000000
22.177050 38.000000
22.196533 59.000000
22.216015 38.000000
22.235497 42.000000
22.254980 30.000000
22.274462 49.000000
22.293945 37.000000
22.313427 47.000000
22.332909 41.000000
22.352392 37.000000
22.371874 40.000000
22.391356 41.000000
22.410839 39.000000
22.430321 54.000000
22.449803 45.000000
22.469286 45.000000
22.488768 53.000000
22.508251 21.000000
22.527733 47.000000
22.547215 39.000000
22.566698 56.000000
22.586180 29.000000
22.605662 45.000000
22.625145 44.000000
22.644627 43.000000
22.664110 50.000000
22.683592 44.000000
22.703074 48.000000
22.722557 45.000000
22.742039 49.000000
22.761521 48.000000
22.781004 52.000000
22.800486 45.000000
22.819968 53.000000
22.839451 41.000000
22.858933 50.000000
22.878416 56.000000
22.897898 64.000000
22.917380 95.000000
22.936863 103.000000
22.956345 130.000000
22.975827 219.000000
22.995310 337.000000
23.014792 500.000000
23.034275 565.000000
23.053757 594.000000
23.073239 464.000000
23.092722 366.000000
23.112204 294.000000
23.131686 187.000000
23.151169 128.000000
23.170651 85.000000
23.190133 92.000000
23.209616 74.000000
23.229098 55.000000
23.248581 55.000000
23.268063 49.000000
23.287545 35.000000
23.307028 52.000000
23.326510 51.000000
23.345992 38.000000
23.365475 37.000000
23.384957 49.000000
23.404440 40.000000
23.423922 48.000000
23.443404 43.000000
23.462887 41.000000
23.482369 51.000000
23.501851 34.000000
23.521334 50.000000
23.540816 37.000000
23.560298 49.000000
23.579781 38.000000
23.599263 42.000000
23.618746 29.000000
23.638228 35.000000
23.657710 40.000000
23.677193 52.000000
23.696675 41.000000
23.716157 39.000000
23.735640 37.000000
23.755122 32.000000
23.774605 47.000000
23.794087 38.000000
23.813569 31.000000
23.833052 31.000000
23.852534 43.000000
23.872016 42.000000
23.891499 44.000000
23.910981 42.000000
23.930463 37.000000
23.949946 45.000000
23.969428 44.000000
23.988911 48.000000
24.008393 33.000000
24.027875 44.000000
24.047358 23.000000
24.066840 28.000000
24.086322 42.000000
24.105805 34.000000
24.125287 41.000000
24.144770 43.000000
24.164252 39.000000
24.183734 48.000000
24.203217 51.000000
24.222699 44.000000
24.242181 38.000000
24.261664 38.000000
24.281146 35.000000
24.300629 42.000000
24.320111 48.000000
24.339593 34.000000
24.359076 33.000000
24.378558 33.000000
24.398040 26.000000
24.417523 37.000000
24.437005 27.000000
24.456487 28.000000
24.475970 31.000000
24.495452 41.000000
24.514935 31.000000
24.534417 36.000000
24.553899 31.000000
24.573382 35.000000
24.592864 38.000000
24.612346 44.000000
24.631829 31.000000
24.651311 40.000000
24.670794 50.000000
24.690276 52.000000
24.709758 36.000000
24.729241 41.000000
24.748723 33.000000
24.768205 33.000000
24.787688 45.000000
24.807170 44.000000
24.826652 38.000000
24.846135 35.000000
24.865617 43.000000
24.885100 29.000000
24.904582 30.000000
24.924064 35.000000
24.943547 44.000000
24.963029 45.000000
24.982511 46.000000
25.001994 35.000000
25.021476 33.000000
25.040959 33.000000
25.060441 34.000000
25.079923 49.000000
25.099406 44.000000
25.118888 24.000000
25.138370 29.000000
25.157853 40.000000
25.177335 46.000000
25.196817 40.000000
25.216300 28.000000
25.235782 37.000000
25.255265 41.000000
25.274747 33.000000
25.294229 39.000000
25.313712 43.000000
25.333194 39.000000
25.352676 40.000000
25.372159 30.000000
25.391641 38.000000
25.411124 29.000000
25.430606 36.000000
25.450088 30.000000
25.469571 30.000000
25.489053 41.000000
25.508535 32.000000
25.528018 53.000000
25.547500 35.000000
25.566982 45.000000
25.586465 30.000000
25.605947 30.000000
25.625430 40.000000
25.644912 54.000000
25.664394 40.000000
25.683877 55.000000
25.703359 32.000000
25.722841 47.000000
25.742324 40.000000
25.761806 33.000000
25.781289 41.000000
25.800771 32.000000
25.820253 35.000000
25.839736 38.000000
25.859218 36.000000
25.878700 43.000000
25.898183 43.000000
25.917665 33.000000
25.937148 36.000000
25.956630 30.000000
25.976112 38.000000
25.995595 36.000000
26.015077 37.000000
26.034559 25.000000
26.054042 41.000000
26.073524 28.000000
26.093006 28.000000
26.112489 37.000000
26.131971 42.000000
26.151454 32.000000
26.170936 28.000000
26.190418 34.000000
26.209901 41.000000
26.229383 32.000000
26.248865 44.000000
26.268348 39.000000
26.287830 36.000000
26.307313 38.000000
26.326795 29.000000
26.346277 39.000000
26.365760 40.000000
26.385242 28.000000
26.404724 45.000000
26.424207 41.000000
26.443689 50.000000
26.463171 56.000000
26.482654 60.000000
26.502136 59.000000
26.521619 59.000000
26.541101 43.000000
26.560583 45.000000
26.580066 43.000000
26.599548 62.000000
26.619030 56.000000
26.638513 45.000000
26.657995 62.000000
26.677478 72.000000
26.696960 57.000000
26.716442 52.000000
26.735925 52.000000
26.755407 44.000000
26.774889 47.000000
26.794372 41.000000
26.813854 47.000000
26.833336 34.000000
26.852819 31.000000
26.872301 42.000000
26.891784 38.000000
26.911266 40.000000
26.930748 35.000000
26.950231 38.000000
26.969713 37.000000
26.989195 32.000000
27.008678 39.000000
27.028160 28.000000
27.047643 46.000000
27.067125 42.000000
27.086607 35.000000
27.106090 36.000000
27.125572 36.000000
27.145054 36.000000
27.164537 29.000000
27.184019 36.000000
27.203501 48.000000
27.222984 36.000000
27.242466 25.000000
27.261949 41.000000
27.281431 33.000000
27.300913 13.000000
27.320396 31.000000
27.339878 32.000000
27.359360 31.000000
27.378843 43.000000
27.398325 29.000000
27.417808 41.000000
27.437290 46.000000
27.456772 39.000000
27.476255 40.000000
27.495737 44.000000
27.515219 27.000000
27.534702 33.000000
27.554184 44.000000
27.573667 29.000000
27.593149 39.000000
27.612631 37.000000
27.632114 39.000000
27.651596 41.000000
27.671078 35.000000
27.690561 27.000000
27.710043 36.000000
27.729525 31.000000
27.749008 29.000000
27.768490 35.000000
27.787973 29.000000
27.807455 33.000000
27.826937 31.000000
27.846420 24.000000
27.865902 31.000000
27.885384 40.000000
27.904867 34.000000
27.924349 25.000000
27.943832 33.000000
27.963314 42.000000
27.982796 33.000000
28.002279 37.000000
28.021761 32.000000
28.041243 30.000000
28.060726 33.000000
28.080208 51.000000
28.099690 27.000000
28.119173 38.000000
28.138655 35.000000
28.158138 48.000000
28.177620 37.000000
28.197102 35.000000
28.216585 48.000000
28.236067 40.000000
28.255549 30.000000
28.275032 36.000000
28.294514 41.000000
28.313997 38.000000
28.333479 47.000000
28.352961 66.000000
28.372444 67.000000
28.391926 57.000000
28.411408 75.000000
28.430891 56.000000
28.450373 69.000000
28.469855 53.000000
28.489338 64.000000
28.508820 57.000000
28.528303 46.000000
28.547785 60.000000
28.567267 61.000000
28.586750 56.000000
28.606232 52.000000
28.625714 64.000000
28.645197 60.000000
28.664679 46.000000
28.684162 62.000000
28.703644 74.000000
28.723126 81.000000
28.742609 58.000000
28.762091 79.000000
28.781573 72.000000
28.801056 62.000000
28.820538 57.000000
28.840020 74.000000
28.859503 88.000000
28.878985 76.000000
28.898468 57.000000
28.917950 87.000000
28.937432 72.000000
28.956915 76.000000
28.976397 74.000000
28.995879 85.000000
29.015362 93.000000
29.034844 95.000000
29.054327 102.000000
29.073809 140.000000
29.093291 138.000000
29.112774 131.000000
29.132256 147.000000
29.151738 179.000000
29.171221 197.000000
29.190703 213.000000
29.210185 291.000000
29.229668 337.000000
29.249150 418.000000
29.268633 594.000000
29.288115 916.000000
29.307597 1433.000000
29.327080 2692.000000
29.346562 5060.000000
29.366044 8164.000000
29.385527 9930.000000
29.405009 9176.000000
29.424492 6643.000000
29.443974 5907.000000
29.463456 5617.000000
29.482939 4037.000000
29.502421 2305.000000
29.521903 1169.000000
29.541386 656.000000
29.560868 481.000000
29.580351 383.000000
29.599833 260.000000
29.619315 210.000000
29.638798 201.000000
29.658280 155.000000
29.677762 168.000000
29.697245 119.000000
29.716727 121.000000
29.736209 142.000000
29.755692 101.000000
29.775174 106.000000
29.794657 89.000000
29.814139 91.000000
29.833621 91.000000
29.853104 79.000000
29.872586 80.000000
29.892068 93.000000
29.911551 80.000000
29.931033 64.000000
29.950516 82.000000
29.969998 80.000000
29.989480 73.000000
30.008963 53.000000
30.028445 62.000000
30.047927 59.000000
30.067410 45.000000
30.086892 56.000000
30.106374 50.000000
30.125857 47.000000
30.145339 53.000000
30.164822 45.000000
30.184304 49.000000
30.203786 59.000000
30.223269 64.000000
30.242751 62.000000
30.262233 47.000000
30.281716 57.000000
30.301198 57.000000
30.320681 42.000000
30.340163 48.000000
30.359645 63.000000
30.379128 49.000000
30.398610 56.000000
30.418092 48.000000
30.437575 64.000000
30.457057 52.000000
30.476539 52.000000
30.496022 46.000000
30.515504 49.000000
30.534987 48.000000
30.554469 53.000000
30.573951 45.000000
30.593434 46.000000
30.612916 41.000000
30.632398 47.000000
30.651881 51.000000
30.671363 50.000000
30.690846 42.000000
30.710328 47.000000
30.729810 57.000000
30.749293 44.000000
30.768775 46.000000
30.788257 41.000000
30.807740 46.000000
30.827222 55.000000
30.846704 49.000000
30.866187 47.000000
30.885669 54.000000
30.905152 42.000000
30.924634 35.000000
30.944116 46.000000
30.963599 44.000000
30.983081 39.000000
31.002563 38.000000
31.022046 45.000000
31.041528 45.000000
31.061011 47.000000
31.080493 46.000000
31.099975 54.000000
31.119458 47.000000
31.138940 38.000000
31.158422 46.000000
31.177905 48.000000
31.197387 35.000000
31.216870 55.000000
31.236352 49.000000
31.255834 52.000000
31.275317 52.000000
31.294799 58.000000
31.314281 61.000000
31.333764 67.000000
31.353246 90.000000
31.372728 119.000000
31.392211 184.000000
31.411693 175.000000
31.431176 190.000000
31.450658 163.000000
31.470140 138.000000
31.489623 154.000000
31.509105 134.000000
31.528587 107.000000
31.548070 76.000000
31.567552 53.000000
31.587035 54.000000
31.606517 40.000000
31.625999 45.000000
31.645482 37.000000
31.664964 42.000000
31.684446 35.000000
31.703929 40.000000
31.723411 45.000000
31.742893 35.000000
31.762376 38.000000
31.781858 45.000000
31.801341 47.000000
31.820823 43.000000
31.840305 39.000000
31.859788 41.000000
31.879270 36.000000
31.898752 49.000000
31.918235 50.000000
31.937717 34.000000
31.957200 50.000000
31.976682 31.000000
31.996164 37.000000
32.015647 39.000000
32.035129 41.000000
32.054611 35.000000
32.074094 38.000000
32.093576 47.000000
32.113058 36.000000
32.132541 42.000000
32.152023 37.000000
32.171506 47.000000
32.190988 35.000000
32.210470 44.000000
32.229953 35.000000
32.249435 28.000000
32.268917 38.000000
32.288400 35.000000
32.307882 41.000000
32.327365 39.000000
32.346847 31.000000
32.366329 49.000000
32.385812 46.000000
32.405294 42.000000
32.424776 36.000000
32.444259 28.000000
32.463741 32.000000
32.483223 37.000000
32.502706 39.000000
32.522188 34.000000
32.541671 35.000000
32.561153 36.000000
32.580635 31.000000
32.600118 43.000000
32.619600 39.000000
32.639082 32.000000
32.658565 33.000000
32.678047 44.000000
32.697530 31.000000
32.717012 47.000000
32.736494 32.000000
32.755977 38.000000
32.775459 32.000000
32.794941 40.000000
32.814424 27.000000
32.833906 24.000000
32.853389 33.000000
32.872871 29.000000
32.892353 28.000000
32.911836 33.000000
32.931318 35.000000
32.950800 31.000000
32.970283 30.000000
32.989765 33.000000
33.009247 28.000000
33.028730 26.000000
33.048212 33.000000
33.067695 38.000000
33.087177 27.000000
33.106659 37.000000
33.126142 42.000000
33.145624 43.000000
33.165106 34.000000
33.184589 39.000000
33.204071 31.000000
33.223554 37.000000
33.243036 43.000000
33.262518 44.000000
33.282001 27.000000
33.301483 31.000000
33.320965 28.000000
33.340448 32.000000
33.359930 37.000000
33.379412 40.000000
33.398895 37.000000
33.418377 27.000000
33.437860 35.000000
33.457342 35.000000
33.476824 31.000000
33.496307 23.000000
33.515789 38.000000
33.535271 34.000000
33.554754 25.000000
33.574236 21.000000
33.593719 31.000000
33.613201 25.000000
33.632683 36.000000
33.652166 33.000000
33.671648 31.000000
33.691130 37.000000
33.710613 36.000000
33.730095 30.000000
33.749577 45.000000
33.769060 35.000000
33.788542 36.000000
33.808025 29.000000
33.827507 22.000000
33.846989 34.000000
33.866472 34.000000
33.885954 35.000000
33.905436 29.000000
33.924919 34.000000
33.944401 17.000000
33.963884 44.000000
33.983366 27.000000
34.002848 34.000000
34.022331 32.000000
34.041813 30.000000
34.061295 38.000000
34.080778 20.000000
34.100260 26.000000
34.119742 36.000000
34.139225 31.000000
34.158707 30.000000
34.178190 27.000000
34.197672 31.000000
34.217154 28.000000
34.236637 36.000000
34.256119 35.000000
34.275601 31.000000
34.295084 32.000000
34.314566 28.000000
34.334049 38.000000
34.353531 27.000000
34.373013 31.000000
34.392496 31.000000
34.411978 23.000000
34.431460 37.000000
34.450943 30.000000
34.470425 31.000000
34.489908 31.000000
34.509390 40.000000
34.528872 36.000000
34.548355 25.000000
34.567837 37.000000
34.587319 28.000000
34.606802 34.000000
34.626284 32.000000
34.645766 36.000000
34.665249 39.000000
34.684731 41.000000
34.704214 41.000000
34.723696 22.000000
34.743178 39.000000
34.762661 33.000000
34.782143 39.000000
34.801625 46.000000
34.821108 35.000000
34.840590 42.000000
34.860073 33.000000
34.879555 28.000000
34.899037 32.000000
34.918520 42.000000
34.938002 39.000000
34.957484 23.000000
34.976967 39.000000
34.996449 26.000000
35.015931 35.000000
35.035414 29.000000
35.054896 31.000000
35.074379 33.000000
35.093861 35.000000
35.113343 34.000000
35.132826 36.000000
35.152308 30.000000
35.171790 26.000000
35.191273 25.000000
35.210755 36.000000
35.230238 39.000000
35.249720 28.000000
35.269202 39.000000
35.288685 39.000000
35.308167 40.000000
35.327649 29.000000
35.347132 38.000000
35.366614 42.000000
35.386096 34.000000
35.405579 37.000000
35.425061 38.000000
35.444544 34.000000
35.464026 41.000000
35.483508 40.000000
35.502991 30.000000
35.522473 36.000000
35.541955 45.000000
35.561438 40.000000
35.580920 40.000000
35.600403 30.000000
35.619885 34.000000
35.639367 37.000000
35.658850 42.000000
35.678332 32.000000
35.697814 38.000000
35.717297 43.000000
35.736779 39.000000
35.756261 48.000000
35.775744 59.000000
35.795226 54.000000
35.814709 83.000000
35.834191 74.000000
35.853673 96.000000
35.873156 140.000000
35.892638 203.000000
35.912120 356.000000
35.931603 482.000000
35.951085 573.000000
35.970568 498.000000
35.990050 422.000000
36.009532 357.000000
36.029015 368.000000
36.048497 356.000000
36.067979 278.000000
36.087462 194.000000
36.106944 147.000000
36.126426 100.000000
36.145909 72.000000
36.165391 52.000000
36.184874 43.000000
36.204356 59.000000
36.223838 48.000000
36.243321 43.000000
36.262803 41.000000
36.282285 37.000000
36.301768 35.000000
36.321250 41.000000
36.340733 41.000000
36.360215 37.000000
36.379697 39.000000
36.399180 30.000000
36.418662 31.000000
36.438144 33.000000
36.457627 30.000000
36.477109 37.000000
36.496592 30.000000
36.516074 31.000000
36.535556 24.000000
36.555039 36.000000
36.574521 34.000000
36.594003 26.000000
36.613486 25.000000
36.632968 33.000000
36.652450 29.000000
36.671933 37.000000
36.691415 33.000000
36.710898 23.000000
36.730380 33.000000
36.749862 33.000000
36.769345 36.000000
36.788827 32.000000
36.808309 29.000000
36.827792 32.000000
36.847274 41.000000
36.866757 35.000000
36.886239 29.000000
36.905721 37.000000
36.925204 26.000000
36.944686 34.000000
36.964168 30.000000
36.983651 29.000000
37.003133 30.000000
37.022615 27.000000
37.042098 30.000000
37.061580 34.000000
37.081063 21.000000
37.100545 34.000000
37.120027 29.000000
37.139510 27.000000
37.158992 32.000000
37.178474 30.000000
37.197957 28.000000
37.217439 26.000000
37.236922 22.000000
37.256404 38.000000
37.275886 25.000000
37.295369 28.000000
37.314851 26.000000
37.334333 32.000000
37.353816 28.000000
37.373298 22.000000
37.392780 23.000000
37.412263 29.000000
37.431745 24.000000
37.451228 33.000000
37.470710 32.000000
37.490192 21.000000
37.509675 38.000000
37.529157 21.000000
37.548639 20.000000
37.568122 29.000000
37.587604 28.000000
37.607087 26.000000
37.626569 30.000000
37.646051 33.000000
37.665534 22.000000
37.685016 38.000000
37.704498 30.000000
37.723981 22.000000
37.743463 28.000000
37.762945 24.000000
37.782428 29.000000
37.801910 26.000000
37.821393 34.000000
37.840875 39.000000
37.860357 38.000000
37.879840 25.000000
37.899322 34.000000
37.918804 23.000000
37.938287 24.000000
37.957769 30.000000
37.977252 29.000000
37.996734 36.000000
38.016216 22.000000
38.035699 30.000000
38.055181 30.000000
38.074663 28.000000
38.094146 29.000000
38.113628 22.000000
38.133111 21.000000
38.152593 33.000000
38.172075 31.000000
38.191558 21.000000
38.211040 27.000000
38.230522 24.000000
38.250005 27.000000
38.269487 21.000000
38.288969 25.000000
38.308452 37.000000
38.327934 40.000000
38.347417 27.000000
38.366899 29.000000
38.386381 23.000000
38.405864 31.000000
38.425346 39.000000
38.444828 42.000000
38.464311 35.000000
38.483793 32.000000
38.503276 34.000000
38.522758 25.000000
38.542240 33.000000
38.561723 29.000000
38.581205 27.000000
38.600687 41.000000
38.620170 24.000000
38.639652 26.000000
38.659134 27.000000
38.678617 31.000000
38.698099 37.000000
38.717582 31.000000
38.737064 37.000000
38.756546 28.000000
38.776029 36.000000
38.795511 34.000000
38.814993 29.000000
38.834476 40.000000
38.853958 28.000000
38.873441 37.000000
38.892923 32.000000
38.912405 32.000000
38.931888 27.000000
38.951370 43.000000
38.970852 32.000000
38.990335 43.000000
39.009817 44.000000
39.029299 39.000000
39.048782 34.000000
39.068264 39.000000
39.087747 54.000000
39.107229 55.000000
39.126711 54.000000
39.146194 50.000000
39.165676 58.000000
39.185158 60.000000
39.204641 64.000000
39.224123 101.000000
39.243606 105.000000
39.263088 115.000000
39.282570 146.000000
39.302053 203.000000
39.321535 277.000000
39.341017 531.000000
39.360500 725.000000
39.379982 993.000000
39.399464 1106.000000
39.418947 987.000000
39.438429 746.000000
39.457912 666.000000
39.477394 663.000000
39.496876 602.000000
39.516359 483.000000
39.535841 413.000000
39.555323 231.000000
39.574806 160.000000
39.594288 128.000000
39.613771 89.000000
39.633253 75.000000
39.652735 67.000000
39.672218 48.000000
39.691700 69.000000
39.711182 46.000000
39.730665 46.000000
39.750147 59.000000
39.769630 34.000000
39.789112 39.000000
39.808594 37.000000
39.828077 31.000000
39.847559 40.000000
39.867041 43.000000
39.886524 27.000000
39.906006 29.000000
39.925488 32.000000
39.944971 39.000000
39.964453 30.000000
39.983936 28.000000
40.003418 36.000000
40.022900 29.000000
40.042383 28.000000
40.061865 41.000000
40.081347 23.000000
40.100830 38.000000
40.120312 22.000000
40.139795 24.000000
40.159277 36.000000
40.178759 30.000000
40.198242 29.000000
40.217724 24.000000
40.237206 31.000000
40.256689 30.000000
40.276171 36.000000
40.295653 26.000000
40.315136 39.000000
40.334618 30.000000
40.354101 32.000000
40.373583 21.000000
40.393065 18.000000
40.412548 32.000000
40.432030 27.000000
40.451512 36.000000
40.470995 25.000000
40.490477 33.000000
40.509960 24.000000
40.529442 40.000000
40.548924 33.000000
40.568407 27.000000
40.587889 28.000000
40.607371 29.000000
40.626854 30.000000
40.646336 35.000000
40.665818 30.000000
40.685301 24.000000
40.704783 28.000000
40.724266 31.000000
40.743748 36.000000
40.763230 38.000000
40.782713 26.000000
40.802195 24.000000
40.821677 27.000000
40.841160 23.000000
40.860642 26.000000
40.880125 27.000000
40.899607 19.000000
40.919089 28.000000
40.938572 22.000000
40.958054 24.000000
40.977536 28.000000
40.997019 25.000000
41.016501 24.000000
41.035983 21.000000
41.055466 33.000000
41.074948 22.000000
41.094431 21.000000
41.113913 25.000000
41.133395 23.000000
41.152878 32.000000
41.172360 25.000000
41.191842 32.000000
41.211325 34.000000
41.230807 24.000000
41.250290 31.000000
41.269772 29.000000
41.289254 32.000000
41.308737 25.000000
41.328219 32.000000
41.347701 31.000000
41.367184 29.000000
41.386666 31.000000
41.406149 20.000000
41.425631 19.000000
41.445113 29.000000
41.464596 25.000000
41.484078 30.000000
41.503560 33.000000
41.523043 32.000000
41.542525 28.000000
41.562007 26.000000
41.581490 29.000000
41.600972 37.000000
41.620455 22.000000
41.639937 31.000000
41.659419 23.000000
41.678902 35.000000
41.698384 24.000000
41.717866 35.000000
41.737349 33.000000
41.756831 35.000000
41.776314 28.000000
41.795796 22.000000
41.815278 28.000000
41.834761 24.000000
41.854243 37.000000
41.873725 24.000000
41.893208 27.000000
41.912690 28.000000
41.932172 45.000000
41.951655 34.000000
41.971137 35.000000
41.990620 17.000000
42.010102 38.000000
42.029584 23.000000
42.049067 29.000000
42.068549 28.000000
42.088031 37.000000
42.107514 30.000000
42.126996 33.000000
42.146479 40.000000
42.165961 26.000000
42.185443 39.000000
42.204926 39.000000
42.224408 28.000000
42.243890 27.000000
42.263373 37.000000
42.282855 31.000000
42.302337 27.000000
42.321820 25.000000
42.341302 29.000000
42.360785 36.000000
42.380267 32.000000
42.399749 30.000000
42.419232 28.000000
42.438714 38.000000
42.458196 28.000000
42.477679 28.000000
42.497161 34.000000
42.516644 28.000000
42.536126 33.000000
42.555608 34.000000
42.575091 35.000000
42.594573 40.000000
42.614055 18.000000
42.633538 26.000000
42.653020 30.000000
42.672502 29.000000
42.691985 38.000000
42.711467 44.000000
42.730950 37.000000
42.750432 31.000000
42.769914 26.000000
42.789397 44.000000
42.808879 38.000000
42.828361 46.000000
42.847844 44.000000
42.867326 39.000000
42.886809 49.000000
42.906291 42.000000
42.925773 49.000000
42.945256 60.000000
42.964738 42.000000
42.984220 63.000000
43.003703 88.000000
43.023185 81.000000
43.042667 122.000000
43.062150 171.000000
43.081632 292.000000
43.101115 469.000000
43.120597 668.000000
43.140079 843.000000
43.159562 799.000000
43.179044 652.000000
43.198526 442.000000
43.218009 418.000000
43.237491 438.000000
43.256974 508.000000
43.276456 436.000000
43.295938 294.000000
43.315421 190.000000
43.334903 140.000000
43.354385 98.000000
43.373868 85.000000
43.393350 65.000000
43.412833 64.000000
43.432315 54.000000
43.451797 62.000000
43.471280 33.000000
43.490762 39.000000
43.510244 34.000000
43.529727 34.000000
43.549209 36.000000
43.568691 56.000000
43.588174 27.000000
43.607656 43.000000
43.627139 36.000000
43.646621 33.000000
43.666103 33.000000
43.685586 30.000000
43.705068 43.000000
43.724550 30.000000
43.744033 30.000000
43.763515 26.000000
43.782998 31.000000
43.802480 32.000000
43.821962 39.000000
43.841445 24.000000
43.860927 25.000000
43.880409 26.000000
43.899892 38.000000
43.919374 29.000000
43.938856 27.000000
43.958339 34.000000
43.977821 32.000000
43.997304 25.000000
44.016786 29.000000
44.036268 28.000000
44.055751 31.000000
44.075233 29.000000
44.094715 31.000000
44.114198 23.000000
44.133680 37.000000
44.153163 20.000000
44.172645 25.000000
44.192127 25.000000
44.211610 23.000000
44.231092 24.000000
44.250574 29.000000
44.270057 30.000000
44.289539 26.000000
44.309021 47.000000
44.328504 15.000000
44.347986 17.000000
44.367469 24.000000
44.386951 26.000000
44.406433 22.000000
44.425916 29.000000
44.445398 36.000000
44.464880 25.000000
44.484363 29.000000
44.503845 29.000000
44.523328 38.000000
44.542810 29.000000
44.562292 27.000000
44.581775 25.000000
44.601257 31.000000
44.620739 40.000000
44.640222 29.000000
44.659704 30.000000
44.679186 24.000000
44.698669 15.000000
44.718151 30.000000
44.737634 17.000000
44.757116 20.000000
44.776598 33.000000
44.796081 20.000000
44.815563 34.000000
44.835045 27.000000
44.854528 38.000000
44.874010 33.000000
44.893493 34.000000
44.912975 27.000000
44.932457 25.000000
44.951940 34.000000
44.971422 33.000000
44.990904 28.000000
45.010387 31.000000
45.029869 28.000000
45.049352 29.000000
45.068834 28.000000
45.088316 24.000000
45.107799 29.000000
45.127281 30.000000
45.146763 18.000000
45.166246 38.000000
45.185728 26.000000
45.205210 29.000000
45.224693 26.000000
45.244175 37.000000
45.263658 22.000000
45.283140 22.000000
45.302622 36.000000
45.322105 37.000000
45.341587 32.000000
45.361069 25.000000
45.380552 22.000000
45.400034 26.000000
45.419517 21.000000
45.438999 26.000000
45.458481 25.000000
45.477964 23.000000
45.497446 22.000000
45.516928 37.000000
45.536411 21.000000
45.555893 26.000000
45.575375 28.000000
45.594858 32.000000
45.614340 31.000000
45.633823 27.000000
45.653305 35.000000
45.672787 18.000000
45.692270 21.000000
45.711752 24.000000
45.731234 26.000000
45.750717 34.000000
45.770199 30.000000
45.789682 33.000000
45.809164 34.000000
45.828646 25.000000
45.848129 31.000000
45.867611 34.000000
45.887093 24.000000
45.906576 35.000000
45.926058 31.000000
45.945540 38.000000
45.965023 36.000000
45.984505 28.000000
46.003988 38.000000
46.023470 41.000000
46.042952 40.000000
46.062435 29.000000
46.081917 30.000000
46.101399 34.000000
46.120882 25.000000
46.140364 33.000000
46.159847 34.000000
46.179329 28.000000
46.198811 23.000000
46.218294 37.000000
46.237776 36.000000
46.257258 40.000000
46.276741 31.000000
46.296223 33.000000
46.315705 45.000000
46.335188 38.000000
46.354670 36.000000
46.374153 42.000000
46.393635 41.000000
46.413117 22.000000
46.432600 22.000000
46.452082 28.000000
46.471564 37.000000
46.491047 30.000000
46.510529 27.000000
46.530012 34.000000
46.549494 27.000000
46.568976 28.000000
46.588459 35.000000
46.607941 40.000000
46.627423 32.000000
46.646906 41.000000
46.666388 38.000000
46.685871 26.000000
46.705353 38.000000
46.724835 36.000000
46.744318 27.000000
46.763800 41.000000
46.783282 45.000000
46.802765 34.000000
46.822247 51.000000
46.841729 44.000000
46.861212 31.000000
46.880694 49.000000
46.900177 52.000000
46.919659 57.000000
46.939141 66.000000
46.958624 67.000000
46.978106 84.000000
46.997588 83.000000
47.017071 101.000000
47.036553 126.000000
47.056036 171.000000
47.075518 207.000000
47.095000 213.000000
47.114483 209.000000
47.133965 211.000000
47.153447 177.000000
47.172930 197.000000
47.192412 187.000000
47.211894 198.000000
47.231377 175.000000
47.250859 190.000000
47.270342 155.000000
47.289824 141.000000
47.309306 159.000000
47.328789 162.000000
47.348271 199.000000
47.367753 194.000000
47.387236 268.000000
47.406718 380.000000
47.426201 498.000000
47.445683 692.000000
47.465165 935.000000
47.484648 1088.000000
47.504130 1194.000000
47.523612 1064.000000
47.543095 897.000000
47.562577 769.000000
47.582059 693.000000
47.601542 698.000000
47.621024 687.000000
47.640507 615.000000
47.659989 502.000000
47.679471 372.000000
47.698954 266.000000
47.718436 229.000000
47.737918 145.000000
47.757401 143.000000
47.776883 108.000000
47.796366 94.000000
47.815848 85.000000
47.835330 71.000000
47.854813 62.000000
47.874295 72.000000
47.893777 63.000000
47.913260 55.000000
47.932742 56.000000
47.952224 57.000000
47.971707 49.000000
47.991189 58.000000
48.010672 57.000000
48.030154 56.000000
48.049636 57.000000
48.069119 38.000000
48.088601 69.000000
48.108083 53.000000
48.127566 54.000000
48.147048 55.000000
48.166531 63.000000
48.186013 49.000000
48.205495 50.000000
48.224978 79.000000
48.244460 82.000000
48.263942 89.000000
48.283425 91.000000
48.302907 94.000000
48.322389 118.000000
48.341872 137.000000
48.361354 157.000000
48.380837 233.000000
48.400319 312.000000
48.419801 406.000000
48.439284 543.000000
48.458766 755.000000
48.478248 941.000000
48.497731 998.000000
48.517213 947.000000
48.536696 784.000000
48.556178 657.000000
48.575660 608.000000
48.595143 585.000000
48.614625 638.000000
48.634107 565.000000
48.653590 455.000000
48.673072 341.000000
48.692555 267.000000
48.712037 162.000000
48.731519 121.000000
48.751002 114.000000
48.770484 104.000000
48.789966 91.000000
48.809449 70.000000
48.828931 79.000000
48.848413 65.000000
48.867896 58.000000
48.887378 59.000000
48.906861 65.000000
48.926343 41.000000
48.945825 47.000000
48.965308 45.000000
48.984790 39.000000
49.004272 36.000000
49.023755 23.000000
49.043237 40.000000
49.062720 35.000000
49.082202 36.000000
49.101684 38.000000
49.121167 34.000000
49.140649 42.000000
49.160131 26.000000
49.179614 29.000000
49.199096 34.000000
49.218578 21.000000
49.238061 33.000000
49.257543 26.000000
49.277026 39.000000
49.296508 33.000000
49.315990 34.000000
49.335473 41.000000
49.354955 32.000000
49.374437 40.000000
49.393920 28.000000
49.413402 26.000000
49.432885 29.000000
49.452367 22.000000
49.471849 25.000000
49.491332 21.000000
49.510814 28.000000
49.530296 31.000000
49.549779 29.000000
49.569261 32.000000
49.588743 35.000000
49.608226 26.000000
49.627708 30.000000
49.647191 31.000000
49.666673 21.000000
49.686155 36.000000
49.705638 32.000000
49.725120 31.000000
49.744602 37.000000
49.764085 29.000000
49.783567 22.000000
49.803050 30.000000
49.822532 26.000000
49.842014 23.000000
49.861497 25.000000
49.880979 26.000000
49.900461 37.000000
49.919944 25.000000
49.939426 34.000000
49.958908 17.000000
49.978391 26.000000
49.997873 35.000000
50.017356 27.000000
50.036838 27.000000
50.056320 23.000000
50.075803 30.000000
50.095285 31.000000
50.114767 23.000000
50.134250 24.000000
50.153732 29.000000
50.173215 33.000000
50.192697 27.000000
50.212179 34.000000
50.231662 24.000000
50.251144 27.000000
50.270626 25.000000
50.290109 27.000000
50.309591 21.000000
50.329074 17.000000
50.348556 35.000000
50.368038 25.000000
50.387521 21.000000
50.407003 32.000000
50.426485 30.000000
50.445968 32.000000
50.465450 19.000000
50.484932 29.000000
50.504415 27.000000
50.523897 28.000000
50.543380 29.000000
50.562862 28.000000
50.582344 34.000000
50.601827 41.000000
50.621309 19.000000
50.640791 26.000000
50.660274 21.000000
50.679756 31.000000
50.699239 24.000000
50.718721 27.000000
50.738203 39.000000
50.757686 28.000000
50.777168 30.000000
50.796650 30.000000
50.816133 28.000000
50.835615 27.000000
50.855097 41.000000
50.874580 20.000000
50.894062 27.000000
50.913545 27.000000
50.933027 18.000000
50.952509 28.000000
50.971992 19.000000
50.991474 33.000000
51.010956 26.000000
51.030439 22.000000
51.049921 30.000000
51.069404 25.000000
51.088886 24.000000
51.108368 29.000000
51.127851 26.000000
51.147333 25.000000
51.166815 23.000000
51.186298 34.000000
51.205780 29.000000
51.225262 31.000000
51.244745 27.000000
51.264227 18.000000
51.283710 24.000000
51.303192 22.000000
51.322674 22.000000
51.342157 30.000000
51.361639 29.000000
51.381121 29.000000
51.400604 24.000000
51.420086 33.000000
51.439569 25.000000
51.459051 22.000000
51.478533 20.000000
51.498016 20.000000
51.517498 19.000000
51.536980 21.000000
51.556463 19.000000
51.575945 23.000000
51.595427 30.000000
51.614910 27.000000
51.634392 35.000000
51.653875 29.000000
51.673357 24.000000
51.692839 24.000000
51.712322 18.000000
51.731804 21.000000
51.751286 23.000000
51.770769 27.000000
51.790251 26.000000
51.809734 29.000000
51.829216 21.000000
51.848698 27.000000
51.868181 19.000000
51.887663 23.000000
51.907145 19.000000
51.926628 16.000000
51.946110 26.000000
51.965593 29.000000
51.985075 25.000000
52.004557 25.000000
52.024040 28.000000
52.043522 23.000000
52.063004 24.000000
52.082487 32.000000
52.101969 26.000000
52.121451 22.000000
52.140934 24.000000
52.160416 26.000000
52.179899 24.000000
52.199381 25.000000
52.218863 26.000000
52.238346 31.000000
52.257828 29.000000
52.277310 26.000000
52.296793 16.000000
52.316275 21.000000
52.335758 31.000000
52.355240 26.000000
52.374722 27.000000
52.394205 25.000000
52.413687 22.000000
52.433169 20.000000
52.452652 24.000000
52.472134 12.000000
52.491616 14.000000
52.511099 18.000000
52.530581 25.000000
52.550064 22.000000
52.569546 10.000000
52.589028 27.000000
52.608511 19.000000
52.627993 24.000000
52.647475 23.000000
52.666958 31.000000
52.686440 24.000000
52.705923 19.000000
52.725405 22.000000
52.744887 25.000000
52.764370 20.000000
52.783852 26.000000
52.803334 27.000000
52.822817 19.000000
52.842299 35.000000
52.861781 29.000000
52.881264 29.000000
52.900746 29.000000
52.920229 20.000000
52.939711 20.000000
52.959193 25.000000
52.978676 25.000000
52.998158 20.000000
53.017640 28.000000
53.037123 24.000000
53.056605 34.000000
53.076088 23.000000
53.095570 29.000000
53.115052 25.000000
53.134535 26.000000
53.154017 26.000000
53.173499 27.000000
53.192982 25.000000
53.212464 31.000000
53.231946 24.000000
53.251429 20.000000
53.270911 23.000000
53.290394 32.000000
53.309876 22.000000
53.329358 20.000000
53.348841 22.000000
53.368323 29.000000
53.387805 30.000000
53.407288 19.000000
53.426770 20.000000
53.446253 21.000000
53.465735 14.000000
53.485217 26.000000
53.504700 31.000000
53.524182 18.000000
53.543664 17.000000
53.563147 21.000000
53.582629 23.000000
53.602112 21.000000
53.621594 21.000000
53.641076 28.000000
53.660559 19.000000
53.680041 38.000000
53.699523 23.000000
53.719006 21.000000
53.738488 22.000000
53.757970 20.000000
53.777453 18.000000
53.796935 23.000000
53.816418 27.000000
53.835900 22.000000
53.855382 20.000000
53.874865 21.000000
53.894347 25.000000
53.913829 29.000000
53.933312 27.000000
53.952794 25.000000
53.972277 16.000000
53.991759 22.000000
54.011241 20.000000
54.030724 17.000000
54.050206 23.000000
54.069688 22.000000
54.089171 22.000000
54.108653 32.000000
54.128135 22.000000
54.147618 19.000000
54.167100 20.000000
54.186583 15.000000
54.206065 23.000000
54.225547 25.000000
54.245030 16.000000
54.264512 19.000000
54.283994 22.000000
54.303477 20.000000
54.322959 20.000000
54.342442 26.000000
54.361924 22.000000
54.381406 31.000000
54.400889 25.000000
54.420371 13.000000
54.439853 18.000000
54.459336 22.000000
54.478818 13.000000
54.498300 20.000000
54.517783 30.000000
54.537265 22.000000
54.556748 27.000000
54.576230 22.000000
54.595712 17.000000
54.615195 29.000000
54.634677 21.000000
54.654159 21.000000
54.673642 14.000000
54.693124 19.000000
54.712607 14.000000
54.732089 19.000000
54.751571 24.000000
54.771054 19.000000
54.790536 23.000000
54.810018 20.000000
54.829501 18.000000
54.848983 16.000000
54.868465 22.000000
54.887948 20.000000
54.907430 25.000000
54.926913 23.000000
54.946395 35.000000
54.965877 20.000000
54.985360 23.000000
55.004842 26.000000
55.024324 17.000000
55.043807 23.000000
55.063289 17.000000
55.082772 29.000000
55.102254 25.000000
55.121736 23.000000
55.141219 18.000000
55.160701 14.000000
55.180183 15.000000
55.199666 12.000000
55.219148 22.000000
55.238630 22.000000
55.258113 15.000000
55.277595 21.000000
55.297078 35.000000
55.316560 26.000000
55.336042 26.000000
55.355525 25.000000
55.375007 20.000000
55.394489 18.000000
55.413972 20.000000
55.433454 22.000000
55.452937 24.000000
55.472419 17.000000
55.491901 22.000000
55.511384 20.000000
55.530866 26.000000
55.550348 19.000000
55.569831 33.000000
55.589313 22.000000
55.608796 23.000000
55.628278 25.000000
55.647760 20.000000
55.667243 21.000000
55.686725 26.000000
55.706207 20.000000
55.725690 21.000000
55.745172 27.000000
55.764654 25.000000
55.784137 24.000000
55.803619 20.000000
55.823102 26.000000
55.842584 18.000000
55.862066 24.000000
55.881549 31.000000
55.901031 19.000000
55.920513 21.000000
55.939996 23.000000
55.959478 22.000000
55.978961 23.000000
55.998443 33.000000
56.017925 19.000000
56.037408 28.000000
56.056890 27.000000
56.076372 25.000000
56.095855 23.000000
56.115337 24.000000
56.134819 25.000000
56.154302 16.000000
56.173784 19.000000
56.193267 28.000000
56.212749 29.000000
56.232231 24.000000
56.251714 24.000000
56.271196 32.000000
56.290678 27.000000
56.310161 27.000000
56.329643 44.000000
56.349126 26.000000
56.368608 41.000000
56.388090 27.000000
56.407573 30.000000
56.427055 46.000000
56.446537 47.000000
56.466020 50.000000
56.485502 63.000000
56.504984 108.000000
56.524467 121.000000
56.543949 141.000000
56.563432 155.000000
56.582914 122.000000
56.602396 112.000000
56.621879 92.000000
56.641361 70.000000
56.660843 67.000000
56.680326 92.000000
56.699808 100.000000
56.719291 81.000000
56.738773 88.000000
56.758255 68.000000
56.777738 73.000000
56.797220 54.000000
56.816702 38.000000
56.836185 40.000000
56.855667 31.000000
56.875149 29.000000
56.894632 33.000000
56.914114 22.000000
56.933597 26.000000
56.953079 28.000000
56.972561 31.000000
56.992044 36.000000
57.011526 28.000000
57.031008 34.000000
57.050491 33.000000
57.069973 36.000000
57.089456 27.000000
57.108938 28.000000
57.128420 52.000000
57.147903 40.000000
57.167385 41.000000
57.186867 43.000000
57.206350 42.000000
57.225832 54.000000
57.245315 58.000000
57.264797 70.000000
57.284279 89.000000
57.303762 107.000000
57.323244 125.000000
57.342726 176.000000
57.362209 232.000000
57.381691 256.000000
57.401173 276.000000
57.420656 248.000000
57.440138 202.000000
57.459621 167.000000
57.479103 142.000000
57.498585 155.000000
57.518068 146.000000
57.537550 147.000000
57.557032 149.000000
57.576515 145.000000
57.595997 116.000000
57.615480 88.000000
57.634962 82.000000
57.654444 68.000000
57.673927 58.000000
57.693409 44.000000
57.712891 38.000000
57.732374 44.000000
57.751856 34.000000
57.771338 39.000000
57.790821 38.000000
57.810303 36.000000
57.829786 38.000000
57.849268 33.000000
57.868750 24.000000
57.888233 32.000000
57.907715 23.000000
57.927197 35.000000
57.946680 32.000000
57.966162 35.000000
57.985645 34.000000
58.005127 59.000000
58.024609 62.000000
58.044092 62.000000
58.063574 56.000000
58.083056 76.000000
58.102539 58.000000
58.122021 50.000000
58.141503 51.000000
58.160986 53.000000
58.180468 55.000000
58.199951 52.000000
58.219433 39.000000
58.238915 46.000000
58.258398 35.000000
58.277880 43.000000
58.297362 29.000000
58.316845 33.000000
58.336327 34.000000
58.355810 30.000000
58.375292 26.000000
58.394774 30.000000
58.414257 23.000000
58.433739 23.000000
58.453221 23.000000
58.472704 27.000000
58.492186 25.000000
58.511668 27.000000
58.531151 26.000000
58.550633 19.000000
58.570116 22.000000
58.589598 22.000000
58.609080 26.000000
58.628563 29.000000
58.648045 27.000000
58.667527 23.000000
58.687010 26.000000
58.706492 25.000000
58.725975 22.000000
58.745457 22.000000
58.764939 26.000000
58.784422 24.000000
58.803904 21.000000
58.823386 17.000000
58.842869 26.000000
58.862351 15.000000
58.881834 21.000000
58.901316 20.000000
58.920798 25.000000
58.940281 15.000000
58.959763 16.000000
58.979245 13.000000
58.998728 21.000000
59.018210 22.000000
59.037692 23.000000
59.057175 28.000000
59.076657 23.000000
59.096140 22.000000
59.115622 18.000000
59.135104 20.000000
59.154587 20.000000
59.174069 24.000000
59.193551 24.000000
59.213034 28.000000
59.232516 34.000000
59.251999 22.000000
59.271481 25.000000
59.290963 21.000000
59.310446 24.000000
59.329928 20.000000
59.349410 26.000000
59.368893 20.000000
59.388375 27.000000
59.407857 23.000000
59.427340 33.000000
59.446822 10.000000
59.466305 14.000000
59.485787 23.000000
59.505269 12.000000
59.524752 24.000000
59.544234 15.000000
59.563716 23.000000
59.583199 19.000000
59.602681 24.000000
59.622164 14.000000
59.641646 16.000000
59.661128 20.000000
59.680611 16.000000
59.700093 22.000000
59.719575 24.000000
59.739058 18.000000
59.758540 27.000000
59.778022 17.000000
59.797505 22.000000
59.816987 28.000000
59.836470 24.000000
59.855952 32.000000
59.875434 17.000000
59.894917 26.000000
59.914399 32.000000
59.933881 39.000000
59.953364 36.000000
59.972846 36.000000
59.992329 22.000000
60.011811 24.000000
60.031293 23.000000
60.050776 28.000000
60.070258 22.000000
60.089740 24.000000
60.109223 24.000000
60.128705 28.000000
60.148187 20.000000
60.167670 19.000000
60.187152 32.000000
60.206635 23.000000
60.226117 19.000000
60.245599 22.000000
60.265082 30.000000
60.284564 24.000000
60.304046 30.000000
60.323529 25.000000
60.343011 27.000000
60.362494 20.000000
60.381976 22.000000
60.401458 22.000000
60.420941 33.000000
60.440423 31.000000
60.459905 26.000000
60.479388 37.000000
60.498870 40.000000
60.518352 43.000000
60.537835 50.000000
60.557317 56.000000
60.576800 87.000000
60.596282 117.000000
60.615764 155.000000
60.635247 194.000000
60.654729 232.000000
60.674211 256.000000
60.693694 184.000000
60.713176 151.000000
60.732659 120.000000
60.752141 102.000000
60.771623 128.000000
60.791106 105.000000
60.810588 143.000000
60.830070 121.000000
60.849553 129.000000
60.869035 126.000000
60.888518 123.000000
60.908000 114.000000
60.927482 109.000000
60.946965 112.000000
60.966447 147.000000
60.985929 172.000000
61.005412 170.000000
61.024894 139.000000
61.044376 126.000000
61.063859 103.000000
61.083341 87.000000
61.102824 86.000000
61.122306 92.000000
61.141788 117.000000
61.161271 89.000000
61.180753 97.000000
61.200235 96.000000
61.219718 76.000000
61.239200 65.000000
61.258683 61.000000
61.278165 82.000000
61.297647 105.000000
61.317130 135.000000
61.336612 145.000000
61.356094 151.000000
61.375577 149.000000
61.395059 124.000000
61.414541 91.000000
61.434024 97.000000
61.453506 86.000000
61.472989 79.000000
61.492471 97.000000
61.511953 105.000000
61.531436 98.000000
61.550918 86.000000
61.570400 76.000000
61.589883 58.000000
61.609365 53.000000
61.628848 47.000000
61.648330 37.000000
61.667812 37.000000
61.687295 32.000000
61.706777 23.000000
61.726259 35.000000
61.745742 23.000000
61.765224 22.000000
61.784706 25.000000
61.804189 20.000000
61.823671 30.000000
61.843154 22.000000
61.862636 20.000000
61.882118 8.000000
61.901601 23.000000
61.921083 21.000000
61.940565 27.000000
61.960048 22.000000
61.979530 19.000000
61.999013 9.000000
62.018495 22.000000
62.037977 24.000000
62.057460 19.000000
62.076942 22.000000
62.096424 18.000000
62.115907 20.000000
62.135389 17.000000
62.154871 22.000000
62.174354 18.000000
62.193836 19.000000
62.213319 28.000000
62.232801 20.000000
62.252283 16.000000
62.271766 23.000000
62.291248 22.000000
62.310730 29.000000
62.330213 25.000000
62.349695 15.000000
62.369178 19.000000
62.388660 18.000000
62.408142 32.000000
62.427625 28.000000
62.447107 30.000000
62.466589 18.000000
62.486072 25.000000
62.505554 26.000000
62.525037 28.000000
62.544519 26.000000
62.564001 22.000000
62.583484 27.000000
62.602966 19.000000
62.622448 19.000000
62.641931 21.000000
62.661413 19.000000
62.680895 30.000000
62.700378 21.000000
62.719860 16.000000
62.739343 22.000000
62.758825 32.000000
62.778307 18.000000
62.797790 22.000000
62.817272 23.000000
62.836754 21.000000
62.856237 16.000000
62.875719 34.000000
62.895202 37.000000
62.914684 36.000000
62.934166 41.000000
62.953649 49.000000
62.973131 50.000000
62.992613 66.000000
63.012096 71.000000
63.031578 90.000000
63.051060 76.000000
63.070543 62.000000
63.090025 74.000000
63.109508 73.000000
63.128990 71.000000
63.148472 55.000000
63.167955 53.000000
63.187437 57.000000
63.206919 62.000000
63.226402 61.000000
63.245884 55.000000
63.265367 47.000000
63.284849 34.000000
63.304331 40.000000
63.323814 33.000000
63.343296 33.000000
63.362778 26.000000
63.382261 24.000000
63.401743 27.000000
63.421225 21.000000
63.440708 22.000000
63.460190 35.000000
63.479673 25.000000
63.499155 21.000000
63.518637 29.000000
63.538120 26.000000
63.557602 27.000000
63.577084 19.000000
63.596567 25.000000
63.616049 25.000000
63.635532 18.000000
63.655014 14.000000
63.674496 15.000000
63.693979 20.000000
63.713461 19.000000
63.732943 29.000000
63.752426 24.000000
63.771908 16.000000
63.791390 22.000000
63.810873 16.000000
63.830355 25.000000
63.849838 17.000000
63.869320 25.000000
63.888802 14.000000
63.908285 22.000000
63.927767 19.000000
63.947249 15.000000
63.966732 18.000000
63.986214 15.000000
64.005697 22.000000
64.025179 22.000000
64.044661 16.000000
64.064144 24.000000
64.083626 18.000000
64.103108 24.000000
64.122591 20.000000
64.142073 18.000000
64.161556 30.000000
64.181038 34.000000
64.200520 23.000000
64.220003 27.000000
64.239485 25.000000
64.258967 25.000000
64.278450 29.000000
64.297932 23.000000
64.317414 19.000000
64.336897 35.000000
64.356379 26.000000
64.375862 26.000000
64.395344 29.000000
64.414826 36.000000
64.434309 30.000000
64.453791 40.000000
64.473273 35.000000
64.492756 33.000000
64.512238 45.000000
64.531721 62.000000
64.551203 71.000000
64.570685 95.000000
64.590168 114.000000
64.609650 169.000000
64.629132 221.000000
64.648615 252.000000
64.668097 263.000000
64.687579 230.000000
64.707062 193.000000
64.726544 138.000000
64.746027 112.000000
64.765509 147.000000
64.784991 112.000000
64.804474 141.000000
64.823956 129.000000
64.843438 135.000000
64.862921 127.000000
64.882403 116.000000
64.901886 98.000000
64.921368 83.000000
64.940850 72.000000
64.960333 42.000000
64.979815 49.000000
64.999297 35.000000
65.018780 33.000000
65.038262 30.000000
65.057744 34.000000
65.077227 28.000000
65.096709 29.000000
65.116192 28.000000
65.135674 27.000000
65.155156 27.000000
65.174639 29.000000
65.194121 31.000000
65.213603 26.000000
65.233086 23.000000
65.252568 28.000000
65.272051 37.000000
65.291533 17.000000
65.311015 34.000000
65.330498 27.000000
65.349980 28.000000
65.369462 25.000000
65.388945 25.000000
65.408427 35.000000
65.427909 36.000000
65.447392 44.000000
65.466874 54.000000
65.486357 63.000000
65.505839 81.000000
65.525321 92.000000
65.544804 109.000000
65.564286 148.000000
65.583768 125.000000
65.603251 177.000000
65.622733 199.000000
65.642216 146.000000
65.661698 117.000000
65.681180 110.000000
65.700663 109.000000
65.720145 105.000000
65.739627 102.000000
65.759110 94.000000
65.778592 126.000000
65.798075 98.000000
65.817557 117.000000
65.837039 91.000000
65.856522 78.000000
65.876004 50.000000
65.895486 40.000000
65.914969 45.000000
65.934451 42.000000
65.953933 39.000000
65.973416 26.000000
65.992898 29.000000
66.012381 28.000000
66.031863 28.000000
66.051345 29.000000
66.070828 22.000000
66.090310 21.000000
66.109792 17.000000
66.129275 28.000000
66.148757 20.000000
66.168240 16.000000
66.187722 18.000000
66.207204 21.000000
66.226687 22.000000
66.246169 26.000000
66.265651 22.000000
66.285134 26.000000
66.304616 28.000000
66.324098 23.000000
66.343581 23.000000
66.363063 19.000000
66.382546 17.000000
66.402028 19.000000
66.421510 19.000000
66.440993 26.000000
66.460475 23.000000
66.479957 20.000000
66.499440 25.000000
66.518922 22.000000
66.538405 30.000000
66.557887 18.000000
66.577369 17.000000
66.596852 17.000000
66.616334 18.000000
66.635816 18.000000
66.655299 13.000000
66.674781 22.000000
66.694263 16.000000
66.713746 16.000000
66.733228 13.000000
66.752711 27.000000
66.772193 23.000000
66.791675 21.000000
66.811158 16.000000
66.830640 14.000000
66.850122 13.000000
66.869605 18.000000
66.889087 24.000000
66.908570 16.000000
66.928052 25.000000
66.947534 16.000000
66.967017 18.000000
66.986499 19.000000
67.005981 20.000000
67.025464 30.000000
67.044946 21.000000
67.064428 21.000000
67.083911 8.000000
67.103393 16.000000
67.122876 28.000000
67.142358 17.000000
67.161840 12.000000
67.181323 8.000000
67.200805 19.000000
67.220287 19.000000
67.239770 25.000000
67.259252 11.000000
67.278735 32.000000
67.298217 15.000000
67.317699 24.000000
67.337182 28.000000
67.356664 21.000000
67.376146 17.000000
67.395629 14.000000
67.415111 19.000000
67.434593 19.000000
67.454076 19.000000
67.473558 19.000000
67.493041 17.000000
67.512523 23.000000
67.532005 14.000000
67.551488 16.000000
67.570970 23.000000
67.590452 18.000000
67.609935 25.000000
67.629417 22.000000
67.648900 24.000000
67.668382 18.000000
67.687864 15.000000
67.707347 14.000000
67.726829 12.000000
67.746311 16.000000
67.765794 17.000000
67.785276 23.000000
67.804759 12.000000
67.824241 24.000000
67.843723 21.000000
67.863206 32.000000
67.882688 15.000000
67.902170 15.000000
67.921653 17.000000
67.941135 17.000000
67.960617 19.000000
67.980100 16.000000
67.999582 17.000000
68.019065 22.000000
68.038547 13.000000
68.058029 21.000000
68.077512 20.000000
68.096994 16.000000
68.116476 12.000000
68.135959 25.000000
68.155441 21.000000
68.174924 17.000000
68.194406 21.000000
68.213888 25.000000
68.233371 21.000000
68.252853 16.000000
68.272335 19.000000
68.291818 16.000000
68.311300 21.000000
68.330782 20.000000
68.350265 19.000000
68.369747 14.000000
68.389230 16.000000
68.408712 14.000000
68.428194 26.000000
68.447677 20.000000
68.467159 22.000000
68.486641 15.000000
68.506124 21.000000
68.525606 17.000000
68.545089 19.000000
68.564571 14.000000
68.584053 16.000000
68.603536 22.000000
68.623018 12.000000
68.642500 25.000000
68.661983 24.000000
68.681465 20.000000
68.700947 21.000000
68.720430 17.000000
68.739912 18.000000
68.759395 18.000000
68.778877 15.000000
68.798359 23.000000
68.817842 16.000000
68.837324 24.000000
68.856806 22.000000
68.876289 26.000000
68.895771 17.000000
68.915254 25.000000
68.934736 31.000000
68.954218 29.000000
68.973701 22.000000
68.993183 24.000000
69.012665 21.000000
69.032148 25.000000
69.051630 27.000000
69.071112 38.000000
69.090595 44.000000
69.110077 53.000000
69.129560 69.000000
69.149042 80.000000
69.168524 96.000000
69.188007 106.000000
69.207489 87.000000
69.226971 77.000000
69.246454 63.000000
69.265936 43.000000
69.285419 46.000000
69.304901 47.000000
69.324383 51.000000
69.343866 51.000000
69.363348 69.000000
69.382830 80.000000
69.402313 55.000000
69.421795 46.000000
69.441278 42.000000
69.460760 39.000000
69.480242 25.000000
69.499725 28.000000
69.519207 20.000000
69.538689 27.000000
69.558172 17.000000
69.577654 20.000000
69.597136 21.000000
69.616619 19.000000
69.636101 15.000000
69.655584 26.000000
69.675066 18.000000
69.694548 14.000000
69.714031 18.000000
69.733513 23.000000
69.752995 23.000000
69.772478 21.000000
69.791960 23.000000
69.811443 18.000000
69.830925 13.000000
69.850407 19.000000
69.869890 28.000000
69.889372 27.000000
69.908854 25.000000
69.928337 22.000000
69.947819 26.000000
69.967301 21.000000
69.986784 28.000000
70.006266 26.000000
70.025749 30.000000
