4.000000 90.000000
4.019482 84.000000
4.038965 93.000000
4.058447 87.000000
4.077929 89.000000
4.097412 104.000000
4.116894 99.000000
4.136377 88.000000
4.155859 79.000000
4.175341 105.000000
4.194824 70.000000
4.214306 70.000000
4.233788 83.000000
4.253271 66.000000
4.272753 71.000000
4.292236 83.000000
4.311718 70.000000
4.331200 77.000000
4.350683 80.000000
4.370165 69.000000
4.389647 61.000000
4.409130 60.000000
4.428612 69.000000
4.448094 62.000000
4.467577 70.000000
4.487059 56.000000
4.506542 54.000000
4.526024 60.000000
4.545506 69.000000
4.564989 52.000000
4.584471 91.000000
4.603953 63.000000
4.623436 49.000000
4.642918 58.000000
4.662401 60.000000
4.681883 56.000000
4.701365 60.000000
4.720848 49.000000
4.740330 45.000000
4.759812 56.000000
4.779295 59.000000
4.798777 56.000000
4.818259 42.000000
4.837742 44.000000
4.857224 39.000000
4.876707 57.000000
4.896189 49.000000
4.915671 37.000000
4.935154 43.000000
4.954636 58.000000
4.974118 40.000000
4.993601 51.000000
5.013083 36.000000
5.032566 46.000000
5.052048 45.000000
5.071530 44.000000
5.091013 51.000000
5.110495 55.000000
5.129977 36.000000
5.149460 44.000000
5.168942 39.000000
5.188425 33.000000
5.207907 42.000000
5.227389 34.000000
5.246872 29.000000
5.266354 35.000000
5.285836 39.000000
5.305319 38.000000
5.324801 40.000000
5.344283 42.000000
5.363766 30.000000
5.383248 35.000000
5.402731 31.000000
5.422213 43.000000
5.441695 33.000000
5.461178 44.000000
5.480660 23.000000
5.500142 37.000000
5.519625 40.000000
5.539107 38.000000
5.558590 32.000000
5.578072 24.000000
5.597554 38.000000
5.617037 37.000000
5.636519 28.000000
5.656001 25.000000
5.675484 36.000000
5.694966 37.000000
5.714448 34.000000
5.733931 37.000000
5.753413 30.000000
5.772896 30.000000
5.792378 32.000000
5.811860 43.000000
5.831343 33.000000
5.850825 27.000000
5.870307 26.000000
5.889790 33.000000
5.909272 27.000000
5.928755 37.000000
5.948237 29.000000
5.967719 27.000000
5.987202 32.000000
6.006684 20.000000
6.026166 36.000000
6.045649 37.000000
6.065131 31.000000
6.084613 26.000000
6.104096 25.000000
6.123578 29.000000
6.143061 21.000000
6.162543 40.000000
6.182025 33.000000
6.201508 27.000000
6.220990 31.000000
6.240472 25.000000
6.259955 30.000000
6.279437 25.000000
6.298920 33.000000
6.318402 33.000000
6.337884 25.000000
6.357367 26.000000
6.376849 24.000000
6.396331 22.000000
6.415814 29.000000
6.435296 22.000000
6.454778 29.000000
6.474261 27.000000
6.493743 28.000000
6.513226 22.000000
6.532708 23.000000
6.552190 28.000000
6.571673 30.000000
6.591155 34.000000
6.610637 25.000000
6.630120 34.000000
6.649602 31.000000
6.669085 21.000000
6.688567 21.000000
6.708049 20.000000
6.727532 24.000000
6.747014 28.000000
6.766496 31.000000
6.785979 26.000000
6.805461 31.000000
6.824944 25.000000
6.844426 29.000000
6.863908 23.000000
6.883391 19.000000
6.902873 24.000000
6.922355 22.000000
6.941838 28.000000
6.961320 19.000000
6.980802 28.000000
7.000285 26.000000
7.019767 24.000000
7.039250 17.000000
7.058732 17.000000
7.078214 25.000000
7.097697 35.000000
7.117179 22.000000
7.136661 25.000000
7.156144 21.000000
7.175626 23.000000
7.195109 24.000000
7.214591 21.000000
7.234073 14.000000
7.253556 20.000000
7.273038 21.000000
7.292520 26.000000
7.312003 21.000000
7.331485 27.000000
7.350967 21.000000
7.370450 19.000000
7.389932 24.000000
7.409415 18.000000
7.428897 9.000000
7.448379 32.000000
7.467862 16.000000
7.487344 22.000000
7.506826 13.000000
7.526309 21.000000
7.545791 16.000000
7.565274 20.000000
7.584756 14.000000
7.604238 23.000000
7.623721 30.000000
7.643203 23.000000
7.662685 18.000000
7.682168 33.000000
7.701650 29.000000
7.721132 14.000000
7.740615 22.000000
7.760097 29.000000
7.779580 15.000000
7.799062 17.000000
7.818544 23.000000
7.838027 17.000000
7.857509 24.000000
7.876991 14.000000
7.896474 22.000000
7.915956 18.000000
7.935439 14.000000
7.954921 19.000000
7.974403 10.000000
7.993886 13.000000
8.013368 18.000000
8.032850 27.000000
8.052333 20.000000
8.071815 17.000000
8.091297 16.000000
8.110780 18.000000
8.130262 22.000000
8.149745 25.000000
8.169227 23.000000
8.188709 18.000000
8.208192 23.000000
8.227674 22.000000
8.247156 15.000000
8.266639 13.000000
8.286121 15.000000
8.305604 15.000000
8.325086 20.000000
8.344568 18.000000
8.364051 16.000000
8.383533 22.000000
8.403015 18.000000
8.422498 16.000000
8.441980 14.000000
8.461463 14.000000
8.480945 16.000000
8.500427 12.000000
8.519910 12.000000
8.539392 24.000000
8.558874 16.000000
8.578357 15.000000
8.597839 13.000000
8.617321 18.000000
8.636804 17.000000
8.656286 20.000000
8.675769 19.000000
8.695251 21.000000
8.714733 22.000000
8.734216 28.000000
8.753698 22.000000
8.773180 20.000000
8.792663 13.000000
8.812145 10.000000
8.831628 31.000000
8.851110 25.000000
8.870592 12.000000
8.890075 21.000000
8.909557 25.000000
8.929039 19.000000
8.948522 11.000000
8.968004 14.000000
8.987486 24.000000
9.006969 12.000000
9.026451 17.000000
9.045934 10.000000
9.065416 15.000000
9.084898 14.000000
9.104381 18.000000
9.123863 22.000000
9.143345 22.000000
9.162828 21.000000
9.182310 17.000000
9.201793 20.000000
9.221275 26.000000
9.240757 18.000000
9.260240 15.000000
9.279722 22.000000
9.299204 8.000000
9.318687 23.000000
9.338169 18.000000
9.357651 23.000000
9.377134 17.000000
9.396616 17.000000
9.416099 16.000000
9.435581 22.000000
9.455063 19.000000
9.474546 17.000000
9.494028 12.000000
9.513510 11.000000
9.532993 13.000000
9.552475 10.000000
9.571958 22.000000
9.591440 18.000000
9.610922 14.000000
9.630405 31.000000
9.649887 24.000000
9.669369 18.000000
9.688852 24.000000
9.708334 15.000000
9.727816 12.000000
9.747299 15.000000
9.766781 28.000000
9.786264 10.000000
9.805746 18.000000
9.825228 20.000000
9.844711 13.000000
9.864193 14.000000
9.883675 21.000000
9.903158 28.000000
9.922640 15.000000
9.942123 28.000000
9.961605 12.000000
9.981087 16.000000
10.000570 13.000000
10.020052 11.000000
10.039534 14.000000
10.059017 14.000000
10.078499 19.000000
10.097982 16.000000
10.117464 18.000000
10.136946 16.000000
10.156429 22.000000
10.175911 24.000000
10.195393 21.000000
10.214876 25.000000
10.234358 16.000000
10.253840 19.000000
10.273323 27.000000
10.292805 10.000000
10.312288 18.000000
10.331770 17.000000
10.351252 14.000000
10.370735 23.000000
10.390217 24.000000
10.409699 18.000000
10.429182 19.000000
10.448664 23.000000
10.468147 17.000000
10.487629 20.000000
10.507111 21.000000
10.526594 8.000000
10.546076 18.000000
10.565558 15.000000
10.585041 20.000000
10.604523 17.000000
10.624005 11.000000
10.643488 26.000000
10.662970 19.000000
10.682453 9.000000
10.701935 20.000000
10.721417 20.000000
10.740900 18.000000
10.760382 15.000000
10.779864 16.000000
10.799347 12.000000
10.818829 12.000000
10.838312 11.000000
10.857794 17.000000
10.877276 15.000000
10.896759 19.000000
10.916241 16.000000
10.935723 17.000000
10.955206 20.000000
10.974688 28.000000
10.994170 24.000000
11.013653 10.000000
11.033135 19.000000
11.052618 18.000000
11.072100 19.000000
11.091582 11.000000
11.111065 19.000000
11.130547 14.000000
11.150029 13.000000
11.169512 22.000000
11.188994 15.000000
11.208477 19.000000
11.227959 15.000000
11.247441 23.000000
11.266924 16.000000
11.286406 21.000000
11.305888 11.000000
11.325371 12.000000
11.344853 11.000000
11.364335 13.000000
11.383818 13.000000
11.403300 19.000000
11.422783 14.000000
11.442265 17.000000
11.461747 16.000000
11.481230 14.000000
11.500712 15.000000
11.520194 16.000000
11.539677 24.000000
11.559159 13.000000
11.578642 12.000000
11.598124 19.000000
11.617606 20.000000
11.637089 16.000000
11.656571 18.000000
11.676053 24.000000
11.695536 13.000000
11.715018 15.000000
11.734500 22.000000
11.753983 18.000000
11.773465 11.000000
11.792948 10.000000
11.812430 15.000000
11.831912 11.000000
11.851395 19.000000
11.870877 19.000000
11.890359 11.000000
11.909842 16.000000
11.929324 14.000000
11.948807 12.000000
11.968289 11.000000
11.987771 23.000000
12.007254 7.000000
12.026736 15.000000
12.046218 16.000000
12.065701 17.000000
12.085183 17.000000
12.104666 17.000000
12.124148 9.000000
12.143630 14.000000
12.163113 15.000000
12.182595 18.000000
12.202077 14.000000
12.221560 16.000000
12.241042 11.000000
12.260524 13.000000
12.280007 21.000000
12.299489 13.000000
12.318972 14.000000
12.338454 18.000000
12.357936 17.000000
12.377419 17.000000
12.396901 15.000000
12.416383 11.000000
12.435866 26.000000
12.455348 17.000000
12.474831 22.000000
12.494313 18.000000
12.513795 12.000000
12.533278 15.000000
12.552760 22.000000
12.572242 10.000000
12.591725 18.000000
12.611207 13.000000
12.630689 14.000000
12.650172 14.000000
12.669654 11.000000
12.689137 21.000000
12.708619 12.000000
12.728101 10.000000
12.747584 14.000000
12.767066 9.000000
12.786548 12.000000
12.806031 17.000000
12.825513 10.000000
12.844996 22.000000
12.864478 13.000000
12.883960 16.000000
12.903443 12.000000
12.922925 13.000000
12.942407 11.000000
12.961890 17.000000
12.981372 19.000000
13.000854 14.000000
13.020337 15.000000
13.039819 13.000000
13.059302 12.000000
13.078784 11.000000
13.098266 16.000000
13.117749 16.000000
13.137231 18.000000
13.156713 15.000000
13.176196 15.000000
13.195678 16.000000
13.215161 16.000000
13.234643 12.000000
13.254125 15.000000
13.273608 12.000000
13.293090 19.000000
13.312572 19.000000
13.332055 13.000000
13.351537 14.000000
13.371019 12.000000
13.390502 12.000000
13.409984 13.000000
13.429467 17.000000
13.448949 13.000000
13.468431 14.000000
13.487914 11.000000
13.507396 10.000000
13.526878 10.000000
13.546361 25.000000
13.565843 13.000000
13.585326 9.000000
13.604808 13.000000
13.624290 15.000000
13.643773 12.000000
13.663255 3.000000
13.682737 12.000000
13.702220 18.000000
13.721702 18.000000
13.741185 17.000000
13.760667 23.000000
13.780149 16.000000
13.799632 17.000000
13.819114 24.000000
13.838596 12.000000
13.858079 14.000000
13.877561 10.000000
13.897043 15.000000
13.916526 10.000000
13.936008 18.000000
13.955491 14.000000
13.974973 11.000000
13.994455 15.000000
14.013938 5.000000
14.033420 10.000000
14.052902 12.000000
14.072385 15.000000
14.091867 11.000000
14.111350 16.000000
14.130832 19.000000
14.150314 19.000000
14.169797 21.000000
14.189279 14.000000
14.208761 15.000000
14.228244 20.000000
14.247726 15.000000
14.267208 19.000000
14.286691 16.000000
14.306173 9.000000
14.325656 5.000000
14.345138 8.000000
14.364620 9.000000
14.384103 10.000000
14.403585 13.000000
14.423067 15.000000
14.442550 5.000000
14.462032 10.000000
14.481515 11.000000
14.500997 20.000000
14.520479 9.000000
14.539962 11.000000
14.559444 13.000000
14.578926 12.000000
14.598409 17.000000
14.617891 8.000000
14.637373 14.000000
14.656856 16.000000
14.676338 15.000000
14.695821 14.000000
14.715303 11.000000
14.734785 11.000000
14.754268 14.000000
14.773750 19.000000
14.793232 10.000000
14.812715 10.000000
14.832197 15.000000
14.851680 12.000000
14.871162 12.000000
14.890644 13.000000
14.910127 14.000000
14.929609 10.000000
14.949091 17.000000
14.968574 18.000000
14.988056 14.000000
15.007538 7.000000
15.027021 16.000000
15.046503 20.000000
15.065986 13.000000
15.085468 11.000000
15.104950 11.000000
15.124433 13.000000
15.143915 5.000000
15.163397 14.000000
15.182880 13.000000
15.202362 19.000000
15.221845 11.000000
15.241327 18.000000
15.260809 20.000000
15.280292 11.000000
15.299774 8.000000
15.319256 12.000000
15.338739 16.000000
15.358221 16.000000
15.377704 13.000000
15.397186 11.000000
15.416668 8.000000
15.436151 13.000000
15.455633 18.000000
15.475115 18.000000
15.494598 12.000000
15.514080 17.000000
15.533562 14.000000
15.553045 11.000000
15.572527 13.000000
15.592010 13.000000
15.611492 13.000000
15.630974 10.000000
15.650457 10.000000
15.669939 11.000000
15.689421 7.000000
15.708904 10.000000
15.728386 13.000000
15.747869 9.000000
15.767351 11.000000
15.786833 12.000000
15.806316 11.000000
15.825798 8.000000
15.845280 12.000000
15.864763 15.000000
15.884245 11.000000
15.903727 9.000000
15.923210 14.000000
15.942692 16.000000
15.962175 18.000000
15.981657 9.000000
16.001139 13.000000
16.020622 14.000000
16.040104 15.000000
16.059586 11.000000
16.079069 5.000000
16.098551 5.000000
16.118034 13.000000
16.137516 9.000000
16.156998 5.000000
16.176481 18.000000
16.195963 9.000000
16.215445 9.000000
16.234928 7.000000
16.254410 15.000000
16.273892 12.000000
16.293375 9.000000
16.312857 15.000000
16.332340 10.000000
16.351822 8.000000
16.371304 13.000000
16.390787 15.000000
16.410269 7.000000
16.429751 12.000000
16.449234 12.000000
16.468716 14.000000
16.488199 10.000000
16.507681 10.000000
16.527163 12.000000
16.546646 15.000000
16.566128 14.000000
16.585610 10.000000
16.605093 6.000000
16.624575 8.000000
16.644057 4.000000
16.663540 10.000000
16.683022 6.000000
16.702505 11.000000
16.721987 8.000000
16.741469 5.000000
16.760952 13.000000
16.780434 14.000000
16.799916 11.000000
16.819399 5.000000
16.838881 11.000000
16.858364 5.000000
16.877846 12.000000
16.897328 15.000000
16.916811 10.000000
16.936293 10.000000
16.955775 10.000000
16.975258 15.000000
16.994740 11.000000
17.014222 8.000000
17.033705 11.000000
17.053187 10.000000
17.072670 14.000000
17.092152 13.000000
17.111634 6.000000
17.131117 13.000000
17.150599 6.000000
17.170081 11.000000
17.189564 14.000000
17.209046 13.000000
17.228529 16.000000
17.248011 6.000000
17.267493 10.000000
17.286976 7.000000
17.306458 14.000000
17.325940 6.000000
17.345423 6.000000
17.364905 8.000000
17.384388 9.000000
17.403870 11.000000
17.423352 11.000000
17.442835 8.000000
17.462317 11.000000
17.481799 9.000000
17.501282 13.000000
17.520764 5.000000
17.540246 12.000000
17.559729 9.000000
17.579211 10.000000
17.598694 11.000000
17.618176 17.000000
17.637658 10.000000
17.657141 3.000000
17.676623 14.000000
17.696105 11.000000
17.715588 10.000000
17.735070 14.000000
17.754553 8.000000
17.774035 14.000000
17.793517 13.000000
17.813000 13.000000
17.832482 7.000000
17.851964 13.000000
17.871447 5.000000
17.890929 7.000000
17.910411 13.000000
17.929894 13.000000
17.949376 9.000000
17.968859 9.000000
17.988341 8.000000
18.007823 8.000000
18.027306 7.000000
18.046788 12.000000
18.066270 13.000000
18.085753 8.000000
18.105235 8.000000
18.124718 8.000000
18.144200 7.000000
18.163682 9.000000
18.183165 17.000000
18.202647 8.000000
18.222129 11.000000
18.241612 10.000000
18.261094 10.000000
18.280576 9.000000
18.300059 7.000000
18.319541 6.000000
18.339024 6.000000
18.358506 6.000000
18.377988 15.000000
18.397471 9.000000
18.416953 7.000000
18.436435 11.000000
18.455918 16.000000
18.475400 8.000000
18.494883 11.000000
18.514365 12.000000
18.533847 10.000000
18.553330 10.000000
18.572812 11.000000
18.592294 10.000000
18.611777 10.000000
18.631259 5.000000
18.650741 7.000000
18.670224 6.000000
18.689706 6.000000
18.709189 8.000000
18.728671 8.000000
18.748153 7.000000
18.767636 4.000000
18.787118 10.000000
18.806600 5.000000
18.826083 12.000000
18.845565 15.000000
18.865048 11.000000
18.884530 6.000000
18.904012 7.000000
18.923495 10.000000
18.942977 10.000000
18.962459 15.000000
18.981942 8.000000
19.001424 6.000000
19.020907 14.000000
19.040389 4.000000
19.059871 11.000000
19.079354 10.000000
19.098836 7.000000
19.118318 6.000000
19.137801 11.000000
19.157283 7.000000
19.176765 14.000000
19.196248 7.000000
19.215730 10.000000
19.235213 14.000000
19.254695 17.000000
19.274177 11.000000
19.293660 12.000000
19.313142 8.000000
19.332624 5.000000
19.352107 5.000000
19.371589 5.000000
19.391072 10.000000
19.410554 10.000000
19.430036 7.000000
19.449519 10.000000
19.469001 5.000000
19.488483 12.000000
19.507966 5.000000
19.527448 13.000000
19.546930 10.000000
19.566413 5.000000
19.585895 11.000000
19.605378 8.000000
19.624860 10.000000
19.644342 9.000000
19.663825 11.000000
19.683307 9.000000
19.702789 7.000000
19.722272 6.000000
19.741754 8.000000
19.761237 15.000000
19.780719 5.000000
19.800201 6.000000
19.819684 12.000000
19.839166 6.000000
19.858648 5.000000
19.878131 8.000000
19.897613 5.000000
19.917095 12.000000
19.936578 6.000000
19.956060 8.000000
19.975543 5.000000
19.995025 13.000000
20.014507 8.000000
20.033990 7.000000
20.053472 3.000000
20.072954 9.000000
20.092437 11.000000
20.111919 7.000000
20.131402 4.000000
20.150884 6.000000
20.170366 5.000000
20.189849 12.000000
20.209331 5.000000
20.228813 3.000000
20.248296 11.000000
20.267778 9.000000
20.287260 11.000000
20.306743 5.000000
20.326225 10.000000
20.345708 6.000000
20.365190 6.000000
20.384672 12.000000
20.404155 10.000000
20.423637 5.000000
20.443119 7.000000
20.462602 6.000000
20.482084 9.000000
20.501567 10.000000
20.521049 1.000000
20.540531 7.000000
20.560014 6.000000
20.579496 6.000000
20.598978 14.000000
20.618461 5.000000
20.637943 5.000000
20.657426 7.000000
20.676908 4.000000
20.696390 8.000000
20.715873 6.000000
20.735355 15.000000
20.754837 6.000000
20.774320 5.000000
20.793802 14.000000
20.813284 7.000000
20.832767 6.000000
20.852249 8.000000
20.871732 9.000000
20.891214 5.000000
20.910696 7.000000
20.930179 5.000000
20.949661 11.000000
20.969143 9.000000
20.988626 10.000000
21.008108 6.000000
21.027591 9.000000
21.047073 12.000000
21.066555 6.000000
21.086038 4.000000
21.105520 14.000000
21.125002 3.000000
21.144485 9.000000
21.163967 5.000000
21.183449 10.000000
21.202932 8.000000
21.222414 4.000000
21.241897 6.000000
21.261379 6.000000
21.280861 8.000000
21.300344 19.000000
21.319826 16.000000
21.339308 9.000000
21.358791 9.000000
21.378273 9.000000
21.397756 8.000000
21.417238 7.000000
21.436720 9.000000
21.456203 4.000000
21.475685 4.000000
21.495167 10.000000
21.514650 8.000000
21.534132 5.000000
21.553614 5.000000
21.573097 10.000000
21.592579 7.000000
21.612062 7.000000
21.631544 8.000000
21.651026 12.000000
21.670509 9.000000
21.689991 5.000000
21.709473 3.000000
21.728956 7.000000
21.748438 6.000000
21.767921 4.000000
21.787403 8.000000
21.806885 2.000000
21.826368 8.000000
21.845850 4.000000
21.865332 5.000000
21.884815 8.000000
21.904297 4.000000
21.923779 4.000000
21.943262 9.000000
21.962744 5.000000
21.982227 10.000000
22.001709 7.000000
22.021191 7.000000
22.040674 12.000000
22.060156 11.000000
22.079638 7.000000
22.099121 8.000000
22.118603 10.000000
22.138086 10.000000
22.157568 8.000000
22.177050 6.000000
22.196533 9.000000
22.216015 12.000000
22.235497 7.000000
22.254980 12.000000
22.274462 6.000000
22.293945 8.000000
22.313427 8.000000
22.332909 5.000000
22.352392 9.000000
22.371874 9.000000
22.391356 11.000000
22.410839 7.000000
22.430321 11.000000
22.449803 13.000000
22.469286 8.000000
22.488768 10.000000
22.508251 7.000000
22.527733 6.000000
22.547215 10.000000
22.566698 8.000000
22.586180 10.000000
22.605662 5.000000
22.625145 9.000000
22.644627 10.000000
22.664110 11.000000
22.683592 5.000000
22.703074 10.000000
22.722557 14.000000
22.742039 12.000000
22.761521 8.000000
22.781004 8.000000
22.800486 3.000000
22.819968 4.000000
22.839451 6.000000
22.858933 9.000000
22.878416 6.000000
22.897898 11.000000
22.917380 17.000000
22.936863 17.000000
22.956345 28.000000
22.975827 38.000000
22.995310 67.000000
23.014792 87.000000
23.034275 86.000000
23.053757 104.000000
23.073239 88.000000
23.092722 62.000000
23.112204 54.000000
23.131686 38.000000
23.151169 22.000000
23.170651 19.000000
23.190133 15.000000
23.209616 12.000000
23.229098 3.000000
23.248581 13.000000
23.268063 8.000000
23.287545 12.000000
23.307028 8.000000
23.326510 5.000000
23.345992 11.000000
23.365475 10.000000
23.384957 12.000000
23.404440 10.000000
23.423922 9.000000
23.443404 10.000000
23.462887 10.000000
23.482369 4.000000
23.501851 8.000000
23.521334 8.000000
23.540816 6.000000
23.560298 9.000000
23.579781 7.000000
23.599263 3.000000
23.618746 8.000000
23.638228 4.000000
23.657710 6.000000
23.677193 4.000000
23.696675 9.000000
23.716157 7.000000
23.735640 8.000000
23.755122 4.000000
23.774605 9.000000
23.794087 3.000000
23.813569 13.000000
23.833052 12.000000
23.852534 6.000000
23.872016 3.000000
23.891499 3.000000
23.910981 4.000000
23.930463 7.000000
23.949946 6.000000
23.969428 7.000000
23.988911 6.000000
24.008393 5.000000
24.027875 13.000000
24.047358 6.000000
24.066840 8.000000
24.086322 7.000000
24.105805 2.000000
24.125287 4.000000
24.144770 6.000000
24.164252 4.000000
24.183734 14.000000
24.203217 6.000000
24.222699 6.000000
24.242181 8.000000
24.261664 7.000000
24.281146 6.000000
24.300629 9.000000
24.320111 5.000000
24.339593 6.000000
24.359076 6.000000
24.378558 9.000000
24.398040 9.000000
24.417523 7.000000
24.437005 7.000000
24.456487 4.000000
24.475970 7.000000
24.495452 6.000000
24.514935 6.000000
24.534417 12.000000
24.553899 7.000000
24.573382 8.000000
24.592864 12.000000
24.612346 8.000000
24.631829 3.000000
24.651311 10.000000
24.670794 3.000000
24.690276 10.000000
24.709758 5.000000
24.729241 7.000000
24.748723 5.000000
24.768205 8.000000
24.787688 8.000000
24.807170 1.000000
24.826652 4.000000
24.846135 5.000000
24.865617 5.000000
24.885100 11.000000
24.904582 10.000000
24.924064 7.000000
24.943547 11.000000
24.963029 6.000000
24.982511 16.000000
25.001994 9.000000
25.021476 6.000000
25.040959 4.000000
25.060441 6.000000
25.079923 10.000000
25.099406 9.000000
25.118888 5.000000
25.138370 7.000000
25.157853 10.000000
25.177335 15.000000
25.196817 8.000000
25.216300 4.000000
25.235782 7.000000
25.255265 6.000000
25.274747 3.000000
25.294229 6.000000
25.313712 2.000000
25.333194 11.000000
25.352676 8.000000
25.372159 7.000000
25.391641 8.000000
25.411124 6.000000
25.430606 3.000000
25.450088 9.000000
25.469571 7.000000
25.489053 8.000000
25.508535 6.000000
25.528018 6.000000
25.547500 7.000000
25.566982 10.000000
25.586465 4.000000
25.605947 5.000000
25.625430 7.000000
25.644912 5.000000
25.664394 5.000000
25.683877 12.000000
25.703359 4.000000
25.722841 8.000000
25.742324 8.000000
25.761806 10.000000
25.781289 4.000000
25.800771 7.000000
25.820253 8.000000
25.839736 7.000000
25.859218 4.000000
25.878700 8.000000
25.898183 5.000000
25.917665 8.000000
25.937148 5.000000
25.956630 8.000000
25.976112 9.000000
25.995595 5.000000
26.015077 4.000000
26.034559 6.000000
26.054042 6.000000
26.073524 6.000000
26.093006 5.000000
26.112489 5.000000
26.131971 6.000000
26.151454 7.000000
26.170936 6.000000
26.190418 8.000000
26.209901 6.000000
26.229383 4.000000
26.248865 8.000000
26.268348 5.000000
26.287830 4.000000
26.307313 3.000000
26.326795 8.000000
26.346277 2.000000
26.365760 11.000000
26.385242 6.000000
26.404724 4.000000
26.424207 9.000000
26.443689 12.000000
26.463171 9.000000
26.482654 12.000000
26.502136 9.000000
26.521619 9.000000
26.541101 10.000000
26.560583 3.000000
26.580066 7.000000
26.599548 12.000000
26.619030 8.000000
26.638513 18.000000
26.657995 10.000000
26.677478 6.000000
26.696960 11.000000
26.716442 8.000000
26.735925 12.000000
26.755407 8.000000
26.774889 6.000000
26.794372 5.000000
26.813854 10.000000
26.833336 8.000000
26.852819 6.000000
26.872301 8.000000
26.891784 1.000000
26.911266 6.000000
26.930748 8.000000
26.950231 5.000000
26.969713 8.000000
26.989195 8.000000
27.008678 9.000000
27.028160 7.000000
27.047643 7.000000
27.067125 0.000001
27.086607 4.000000
27.106090 8.000000
27.125572 4.000000
27.145054 4.000000
27.164537 3.000000
27.184019 7.000000
27.203501 7.000000
27.222984 12.000000
27.242466 11.000000
27.261949 4.000000
27.281431 4.000000
27.300913 21.000000
27.320396 8.000000
27.339878 6.000000
27.359360 9.000000
27.378843 6.000000
27.398325 4.000000
27.417808 9.000000
27.437290 7.000000
27.456772 4.000000
27.476255 8.000000
27.495737 5.000000
27.515219 8.000000
27.534702 4.000000
27.554184 9.000000
27.573667 6.000000
27.593149 8.000000
27.612631 3.000000
27.632114 7.000000
27.651596 10.000000
27.671078 2.000000
27.690561 2.000000
27.710043 8.000000
27.729525 3.000000
27.749008 3.000000
27.768490 6.000000
27.787973 8.000000
27.807455 6.000000
27.826937 9.000000
27.846420 10.000000
27.865902 11.000000
27.885384 14.000000
27.904867 7.000000
27.924349 4.000000
27.943832 6.000000
27.963314 6.000000
27.982796 5.000000
28.002279 6.000000
28.021761 7.000000
28.041243 5.000000
28.060726 5.000000
28.080208 9.000000
28.099690 6.000000
28.119173 7.000000
28.138655 8.000000
28.158138 4.000000
28.177620 9.000000
28.197102 5.000000
28.216585 9.000000
28.236067 8.000000
28.255549 9.000000
28.275032 7.000000
28.294514 9.000000
28.313997 7.000000
28.333479 10.000000
28.352961 7.000000
28.372444 8.000000
28.391926 8.000000
28.411408 8.000000
28.430891 9.000000
28.450373 11.000000
28.469855 14.000000
28.489338 7.000000
28.508820 16.000000
28.528303 12.000000
28.547785 17.000000
28.567267 12.000000
28.586750 10.000000
28.606232 12.000000
28.625714 8.000000
28.645197 12.000000
28.664679 9.000000
28.684162 8.000000
28.703644 13.000000
28.723126 13.000000
28.742609 21.000000
28.762091 7.000000
28.781573 11.000000
28.801056 14.000000
28.820538 20.000000
28.840020 12.000000
28.859503 19.000000
28.878985 12.000000
28.898468 9.000000
28.917950 16.000000
28.937432 12.000000
28.956915 12.000000
28.976397 12.000000
28.995879 10.000000
29.015362 12.000000
29.034844 21.000000
29.054327 20.000000
29.073809 18.000000
29.093291 26.000000
29.112774 27.000000
29.132256 20.000000
29.151738 37.000000
29.171221 23.000000
29.190703 32.000000
29.210185 54.000000
29.229668 39.000000
29.249150 97.000000
29.268633 112.000000
29.288115 202.000000
29.307597 316.000000
29.327080 469.000000
29.346562 980.000000
29.366044 1506.000000
29.385527 1848.000000
29.405009 1615.000000
29.424492 1263.000000
29.443974 1083.000000
29.463456 1007.000000
29.482939 725.000000
29.502421 406.000000
29.521903 235.000000
29.541386 112.000000
29.560868 77.000000
29.580351 52.000000
29.599833 38.000000
29.619315 38.000000
29.638798 43.000000
29.658280 35.000000
29.677762 25.000000
29.697245 29.000000
29.716727 16.000000
29.736209 23.000000
29.755692 14.000000
29.775174 10.000000
29.794657 9.000000
29.814139 17.000000
29.833621 15.000000
29.853104 12.000000
29.872586 12.000000
29.892068 23.000000
29.911551 20.000000
29.931033 14.000000
29.950516 11.000000
29.969998 13.000000
29.989480 7.000000
30.008963 8.000000
30.028445 8.000000
30.047927 14.000000
30.067410 9.000000
30.086892 11.000000
30.106374 3.000000
30.125857 11.000000
30.145339 8.000000
30.164822 10.000000
30.184304 8.000000
30.203786 9.000000
30.223269 10.000000
30.242751 6.000000
30.262233 10.000000
30.281716 8.000000
30.301198 8.000000
30.320681 11.000000
30.340163 13.000000
30.359645 10.000000
30.379128 8.000000
30.398610 16.000000
30.418092 9.000000
30.437575 10.000000
30.457057 9.000000
30.476539 12.000000
30.496022 10.000000
30.515504 5.000000
30.534987 9.000000
30.554469 9.000000
30.573951 10.000000
30.593434 10.000000
30.612916 9.000000
30.632398 15.000000
30.651881 8.000000
30.671363 7.000000
30.690846 7.000000
30.710328 9.000000
30.729810 9.000000
30.749293 3.000000
30.768775 10.000000
30.788257 7.000000
30.807740 12.000000
30.827222 5.000000
30.846704 12.000000
30.866187 6.000000
30.885669 5.000000
30.905152 9.000000
30.924634 10.000000
30.944116 5.000000
30.963599 5.000000
30.983081 7.000000
31.002563 7.000000
31.022046 8.000000
31.041528 13.000000
31.061011 8.000000
31.080493 13.000000
31.099975 11.000000
31.119458 6.000000
31.138940 6.000000
31.158422 16.000000
31.177905 5.000000
31.197387 11.000000
31.216870 7.000000
31.236352 4.000000
31.255834 6.000000
31.275317 7.000000
31.294799 10.000000
31.314281 12.000000
31.333764 7.000000
31.353246 20.000000
31.372728 28.000000
31.392211 34.000000
31.411693 31.000000
31.431176 42.000000
31.450658 32.000000
31.470140 25.000000
31.489623 35.000000
31.509105 23.000000
31.528587 14.000000
31.548070 14.000000
31.567552 20.000000
31.587035 8.000000
31.606517 11.000000
31.625999 7.000000
31.645482 12.000000
31.664964 7.000000
31.684446 7.000000
31.703929 6.000000
31.723411 11.000000
31.742893 7.000000
31.762376 9.000000
31.781858 6.000000
31.801341 5.000000
31.820823 14.000000
31.840305 3.000000
31.859788 4.000000
31.879270 6.000000
31.898752 6.000000
31.918235 6.000000
31.937717 10.000000
31.957200 8.000000
31.976682 9.000000
31.996164 8.000000
32.015647 12.000000
32.035129 5.000000
32.054611 8.000000
32.074094 8.000000
32.093576 6.000000
32.113058 10.000000
32.132541 12.000000
32.152023 8.000000
32.171506 3.000000
32.190988 8.000000
32.210470 6.000000
32.229953 6.000000
32.249435 7.000000
32.268917 7.000000
32.288400 9.000000
32.307882 9.000000
32.327365 7.000000
32.346847 6.000000
32.366329 8.000000
32.385812 8.000000
32.405294 6.000000
32.424776 8.000000
32.444259 10.000000
32.463741 9.000000
32.483223 6.000000
32.502706 6.000000
32.522188 5.000000
32.541671 5.000000
32.561153 4.000000
32.580635 9.000000
32.600118 5.000000
32.619600 3.000000
32.639082 6.000000
32.658565 7.000000
32.678047 7.000000
32.697530 11.000000
32.717012 8.000000
32.736494 3.000000
32.755977 15.000000
32.775459 5.000000
32.794941 5.000000
32.814424 7.000000
32.833906 10.000000
32.853389 3.000000
32.872871 13.000000
32.892353 5.000000
32.911836 5.000000
32.931318 2.000000
32.950800 2.000000
32.970283 7.000000
32.989765 3.000000
33.009247 6.000000
33.028730 1.000000
33.048212 3.000000
33.067695 9.000000
33.087177 7.000000
33.106659 6.000000
33.126142 11.000000
33.145624 10.000000
33.165106 6.000000
33.184589 6.000000
33.204071 9.000000
33.223554 7.000000
33.243036 9.000000
33.262518 9.000000
33.282001 3.000000
33.301483 4.000000
33.320965 7.000000
33.340448 4.000000
33.359930 8.000000
33.379412 5.000000
33.398895 10.000000
33.418377 7.000000
33.437860 6.000000
33.457342 7.000000
33.476824 5.000000
33.496307 2.000000
33.515789 10.000000
33.535271 7.000000
33.554754 7.000000
33.574236 5.000000
33.593719 5.000000
33.613201 9.000000
33.632683 5.000000
33.652166 6.000000
33.671648 3.000000
33.691130 5.000000
33.710613 6.000000
33.730095 5.000000
33.749577 9.000000
33.769060 4.000000
33.788542 7.000000
33.808025 5.000000
33.827507 4.000000
33.846989 6.000000
33.866472 12.000000
33.885954 5.000000
33.905436 3.000000
33.924919 6.000000
33.944401 3.000000
33.963884 3.000000
33.983366 7.000000
34.002848 5.000000
34.022331 7.000000
34.041813 6.000000
34.061295 4.000000
34.080778 8.000000
34.100260 9.000000
34.119742 4.000000
34.139225 5.000000
34.158707 9.000000
34.178190 3.000000
34.197672 5.000000
34.217154 11.000000
34.236637 5.000000
34.256119 9.000000
34.275601 6.000000
34.295084 8.000000
34.314566 5.000000
34.334049 8.000000
34.353531 6.000000
34.373013 3.000000
34.392496 4.000000
34.411978 8.000000
34.431460 4.000000
34.450943 6.000000
34.470425 8.000000
34.489908 5.000000
34.509390 6.000000
34.528872 5.000000
34.548355 4.000000
34.567837 6.000000
34.587319 8.000000
34.606802 2.000000
34.626284 11.000000
34.645766 4.000000
34.665249 7.000000
34.684731 7.000000
34.704214 5.000000
34.723696 6.000000
34.743178 7.000000
34.762661 6.000000
34.782143 4.000000
34.801625 3.000000
34.821108 7.000000
34.840590 6.000000
34.860073 8.000000
34.879555 6.000000
34.899037 6.000000
34.918520 6.000000
34.938002 8.000000
34.957484 7.000000
34.976967 8.000000
34.996449 8.000000
35.015931 6.000000
35.035414 7.000000
35.054896 4.000000
35.074379 4.000000
35.093861 3.000000
35.113343 3.000000
35.132826 3.000000
35.152308 5.000000
35.171790 5.000000
35.191273 11.000000
35.210755 4.000000
35.230238 4.000000
35.249720 5.000000
35.269202 4.000000
35.288685 4.000000
35.308167 5.000000
35.327649 11.000000
35.347132 6.000000
35.366614 15.000000
35.386096 6.000000
35.405579 5.000000
35.425061 10.000000
35.444544 7.000000
35.464026 8.000000
35.483508 6.000000
35.502991 6.000000
35.522473 10.000000
35.541955 12.000000
35.561438 7.000000
35.580920 5.000000
35.600403 7.000000
35.619885 11.000000
35.639367 2.000000
35.658850 5.000000
35.678332 9.000000
35.697814 6.000000
35.717297 10.000000
35.736779 11.000000
35.756261 11.000000
35.775744 9.000000
35.795226 8.000000
35.814709 11.000000
35.834191 26.000000
35.853673 18.000000
35.873156 31.000000
35.892638 34.000000
35.912120 80.000000
35.931603 91.000000
35.951085 97.000000
35.970568 109.000000
35.990050 81.000000
36.009532 64.000000
36.029015 61.000000
36.048497 58.000000
36.067979 55.000000
36.087462 44.000000
36.106944 21.000000
36.126426 12.000000
36.145909 15.000000
36.165391 12.000000
36.184874 12.000000
36.204356 7.000000
36.223838 9.000000
36.243321 2.000000
36.262803 5.000000
36.282285 15.000000
36.301768 5.000000
36.321250 6.000000
36.340733 6.000000
36.360215 6.000000
36.379697 9.000000
36.399180 5.000000
36.418662 5.000000
36.438144 6.000000
36.457627 4.000000
36.477109 10.000000
36.496592 3.000000
36.516074 7.000000
36.535556 2.000000
36.555039 8.000000
36.574521 6.000000
36.594003 1.000000
36.613486 6.000000
36.632968 9.000000
36.652450 5.000000
36.671933 7.000000
36.691415 4.000000
36.710898 3.000000
36.730380 7.000000
36.749862 4.000000
36.769345 7.000000
36.788827 6.000000
36.808309 7.000000
36.827792 4.000000
36.847274 2.000000
36.866757 7.000000
36.886239 9.000000
36.905721 4.000000
36.925204 4.000000
36.944686 3.000000
36.964168 2.000000
36.983651 10.000000
37.003133 4.000000
37.022615 5.000000
37.042098 7.000000
37.061580 7.000000
37.081063 9.000000
37.100545 7.000000
37.120027 4.000000
37.139510 6.000000
37.158992 10.000000
37.178474 2.000000
37.197957 8.000000
37.217439 7.000000
37.236922 4.000000
37.256404 8.000000
37.275886 7.000000
37.295369 6.000000
37.314851 6.000000
37.334333 2.000000
37.353816 8.000000
37.373298 4.000000
37.392780 8.000000
37.412263 5.000000
37.431745 1.000000
37.451228 3.000000
37.470710 4.000000
37.490192 6.000000
37.509675 3.000000
37.529157 3.000000
37.548639 6.000000
37.568122 3.000000
37.587604 3.000000
37.607087 7.000000
37.626569 4.000000
37.646051 4.000000
37.665534 10.000000
37.685016 5.000000
37.704498 3.000000
37.723981 2.000000
37.743463 8.000000
37.762945 4.000000
37.782428 6.000000
37.801910 10.000000
37.821393 7.000000
37.840875 5.000000
37.860357 3.000000
37.879840 4.000000
37.899322 2.000000
37.918804 9.000000
37.938287 6.000000
37.957769 4.000000
37.977252 7.000000
37.996734 6.000000
38.016216 5.000000
38.035699 3.000000
38.055181 3.000000
38.074663 2.000000
38.094146 5.000000
38.113628 9.000000
38.133111 6.000000
38.152593 4.000000
38.172075 6.000000
38.191558 7.000000
38.211040 7.000000
38.230522 8.000000
38.250005 5.000000
38.269487 8.000000
38.288969 11.000000
38.308452 5.000000
38.327934 9.000000
38.347417 4.000000
38.366899 8.000000
38.386381 6.000000
38.405864 2.000000
38.425346 6.000000
38.444828 6.000000
38.464311 5.000000
38.483793 4.000000
38.503276 8.000000
38.522758 4.000000
38.542240 9.000000
38.561723 3.000000
38.581205 8.000000
38.600687 3.000000
38.620170 6.000000
38.639652 10.000000
38.659134 6.000000
38.678617 4.000000
38.698099 1.000000
38.717582 5.000000
38.737064 4.000000
38.756546 5.000000
38.776029 3.000000
38.795511 1.000000
38.814993 3.000000
38.834476 4.000000
38.853958 4.000000
38.873441 7.000000
38.892923 5.000000
38.912405 5.000000
38.931888 8.000000
38.951370 6.000000
38.970852 5.000000
38.990335 10.000000
39.009817 4.000000
39.029299 7.000000
39.048782 4.000000
39.068264 9.000000
39.087747 7.000000
39.107229 7.000000
39.126711 6.000000
39.146194 12.000000
39.165676 11.000000
39.185158 16.000000
39.204641 13.000000
39.224123 17.000000
39.243606 21.000000
39.263088 15.000000
39.282570 14.000000
39.302053 38.000000
39.321535 48.000000
39.341017 77.000000
39.360500 145.000000
39.379982 195.000000
39.399464 194.000000
39.418947 179.000000
39.438429 112.000000
39.457912 102.000000
39.477394 111.000000
39.496876 122.000000
39.516359 113.000000
39.535841 82.000000
39.555323 44.000000
39.574806 27.000000
39.594288 17.000000
39.613771 25.000000
39.633253 14.000000
39.652735 19.000000
39.672218 9.000000
39.691700 14.000000
39.711182 5.000000
39.730665 13.000000
39.750147 11.000000
39.769630 7.000000
39.789112 7.000000
39.808594 7.000000
39.828077 4.000000
39.847559 8.000000
39.867041 9.000000
39.886524 6.000000
39.906006 5.000000
39.925488 6.000000
39.944971 6.000000
39.964453 9.000000
39.983936 4.000000
40.003418 4.000000
40.022900 3.000000
40.042383 4.000000
40.061865 10.000000
40.081347 6.000000
40.100830 4.000000
40.120312 5.000000
40.139795 5.000000
40.159277 5.000000
40.178759 4.000000
40.198242 4.000000
40.217724 11.000000
40.237206 2.000000
40.256689 9.000000
40.276171 0.000001
40.295653 5.000000
40.315136 6.000000
40.334618 2.000000
40.354101 7.000000
40.373583 4.000000
40.393065 11.000000
40.412548 5.000000
40.432030 3.000000
40.451512 8.000000
40.470995 8.000000
40.490477 9.000000
40.509960 6.000000
40.529442 4.000000
40.548924 8.000000
40.568407 7.000000
40.587889 3.000000
40.607371 5.000000
40.626854 5.000000
40.646336 6.000000
40.665818 1.000000
40.685301 6.000000
40.704783 7.000000
40.724266 4.000000
40.743748 7.000000
40.763230 5.000000
40.782713 14.000000
40.802195 6.000000
40.821677 2.000000
40.841160 3.000000
40.860642 7.000000
40.880125 10.000000
40.899607 12.000000
40.919089 4.000000
40.938572 2.000000
40.958054 5.000000
40.977536 1.000000
40.997019 6.000000
41.016501 3.000000
41.035983 7.000000
41.055466 4.000000
41.074948 4.000000
41.094431 7.000000
41.113913 3.000000
41.133395 6.000000
41.152878 5.000000
41.172360 5.000000
41.191842 11.000000
41.211325 3.000000
41.230807 3.000000
41.250290 9.000000
41.269772 5.000000
41.289254 5.000000
41.308737 6.000000
41.328219 8.000000
41.347701 5.000000
41.367184 9.000000
41.386666 10.000000
41.406149 4.000000
41.425631 8.000000
41.445113 7.000000
41.464596 7.000000
41.484078 4.000000
41.503560 7.000000
41.523043 2.000000
41.542525 9.000000
41.562007 2.000000
41.581490 3.000000
41.600972 3.000000
41.620455 4.000000
41.639937 4.000000
41.659419 5.000000
41.678902 5.000000
41.698384 4.000000
41.717866 1.000000
41.737349 9.000000
41.756831 1.000000
41.776314 4.000000
41.795796 9.000000
41.815278 6.000000
41.834761 6.000000
41.854243 4.000000
41.873725 5.000000
41.893208 8.000000
41.912690 4.000000
41.932172 3.000000
41.951655 2.000000
41.971137 2.000000
41.990620 4.000000
42.010102 6.000000
42.029584 7.000000
42.049067 7.000000
42.068549 3.000000
42.088031 8.000000
42.107514 8.000000
42.126996 10.000000
42.146479 9.000000
42.165961 2.000000
42.185443 4.000000
42.204926 5.000000
42.224408 8.000000
42.243890 4.000000
42.263373 1.000000
42.282855 6.000000
42.302337 5.000000
42.321820 5.000000
42.341302 2.000000
42.360785 1.000000
42.380267 3.000000
42.399749 11.000000
42.419232 9.000000
42.438714 9.000000
42.458196 4.000000
42.477679 2.000000
42.497161 5.000000
42.516644 7.000000
42.536126 10.000000
42.555608 2.000000
42.575091 3.000000
42.594573 8.000000
42.614055 7.000000
42.633538 5.000000
42.653020 8.000000
42.672502 6.000000
42.691985 6.000000
42.711467 4.000000
42.730950 3.000000
42.750432 5.000000
42.769914 6.000000
42.789397 4.000000
42.808879 5.000000
42.828361 7.000000
42.847844 8.000000
42.867326 11.000000
42.886809 4.000000
42.906291 8.000000
42.925773 10.000000
42.945256 11.000000
42.964738 11.000000
42.984220 11.000000
43.003703 17.000000
43.023185 18.000000
43.042667 10.000000
43.062150 33.000000
43.081632 57.000000
43.101115 77.000000
43.120597 131.000000
43.140079 160.000000
43.159562 157.000000
43.179044 118.000000
43.198526 84.000000
43.218009 72.000000
43.237491 94.000000
43.256974 90.000000
43.276456 65.000000
43.295938 43.000000
43.315421 24.000000
43.334903 23.000000
43.354385 16.000000
43.373868 15.000000
43.393350 13.000000
43.412833 9.000000
43.432315 7.000000
43.451797 6.000000
43.471280 7.000000
43.490762 5.000000
43.510244 8.000000
43.529727 7.000000
43.549209 12.000000
43.568691 6.000000
43.588174 10.000000
43.607656 8.000000
43.627139 10.000000
43.646621 10.000000
43.666103 6.000000
43.685586 4.000000
43.705068 5.000000
43.724550 5.000000
43.744033 6.000000
43.763515 7.000000
43.782998 7.000000
43.802480 3.000000
43.821962 8.000000
43.841445 6.000000
43.860927 11.000000
43.880409 9.000000
43.899892 5.000000
43.919374 7.000000
43.938856 4.000000
43.958339 5.000000
43.977821 4.000000
43.997304 6.000000
44.016786 11.000000
44.036268 11.000000
44.055751 1.000000
44.075233 5.000000
44.094715 6.000000
44.114198 8.000000
44.133680 6.000000
44.153163 6.000000
44.172645 7.000000
44.192127 9.000000
44.211610 4.000000
44.231092 6.000000
44.250574 4.000000
44.270057 8.000000
44.289539 5.000000
44.309021 6.000000
44.328504 3.000000
44.347986 2.000000
44.367469 6.000000
44.386951 3.000000
44.406433 4.000000
44.425916 6.000000
44.445398 5.000000
44.464880 6.000000
44.484363 9.000000
44.503845 3.000000
44.523328 5.000000
44.542810 4.000000
44.562292 3.000000
44.581775 4.000000
44.601257 6.000000
44.620739 7.000000
44.640222 7.000000
44.659704 8.000000
44.679186 6.000000
44.698669 4.000000
44.718151 4.000000
44.737634 5.000000
44.757116 4.000000
44.776598 2.000000
44.796081 4.000000
44.815563 6.000000
44.835045 8.000000
44.854528 9.000000
44.874010 5.000000
44.893493 5.000000
44.912975 5.000000
44.932457 3.000000
44.951940 10.000000
44.971422 9.000000
44.990904 9.000000
45.010387 3.000000
45.029869 9.000000
45.049352 3.000000
45.068834 9.000000
45.088316 4.000000
45.107799 5.000000
45.127281 4.000000
45.146763 8.000000
45.166246 9.000000
45.185728 4.000000
45.205210 4.000000
45.224693 6.000000
45.244175 6.000000
45.263658 5.000000
45.283140 7.000000
45.302622 6.000000
45.322105 4.000000
45.341587 2.000000
45.361069 3.000000
45.380552 9.000000
45.400034 5.000000
45.419517 9.000000
45.438999 4.000000
45.458481 7.000000
45.477964 5.000000
45.497446 3.000000
45.516928 2.000000
45.536411 6.000000
45.555893 4.000000
45.575375 2.000000
45.594858 4.000000
45.614340 12.000000
45.633823 7.000000
45.653305 9.000000
45.672787 7.000000
45.692270 4.000000
45.711752 8.000000
45.731234 4.000000
45.750717 6.000000
45.770199 3.000000
45.789682 7.000000
45.809164 5.000000
45.828646 7.000000
45.848129 8.000000
45.867611 11.000000
45.887093 5.000000
45.906576 8.000000
45.926058 5.000000
45.945540 4.000000
45.965023 1.000000
45.984505 5.000000
46.003988 7.000000
46.023470 8.000000
46.042952 4.000000
46.062435 5.000000
46.081917 6.000000
46.101399 6.000000
46.120882 7.000000
46.140364 5.000000
46.159847 4.000000
46.179329 6.000000
46.198811 10.000000
46.218294 7.000000
46.237776 5.000000
46.257258 7.000000
46.276741 6.000000
46.296223 1.000000
46.315705 6.000000
46.335188 4.000000
46.354670 5.000000
46.374153 10.000000
46.393635 6.000000
46.413117 7.000000
46.432600 5.000000
46.452082 3.000000
46.471564 3.000000
46.491047 6.000000
46.510529 3.000000
46.530012 4.000000
46.549494 9.000000
46.568976 6.000000
46.588459 3.000000
46.607941 8.000000
46.627423 7.000000
46.646906 5.000000
46.666388 5.000000
46.685871 6.000000
46.705353 3.000000
46.724835 6.000000
46.744318 7.000000
46.763800 7.000000
46.783282 10.000000
46.802765 10.000000
46.822247 11.000000
46.841729 4.000000
46.861212 9.000000
46.880694 14.000000
46.900177 8.000000
46.919659 9.000000
46.939141 18.000000
46.958624 4.000000
46.978106 19.000000
46.997588 11.000000
47.017071 23.000000
47.036553 20.000000
47.056036 32.000000
47.075518 49.000000
47.095000 47.000000
47.114483 37.000000
47.133965 31.000000
47.153447 30.000000
47.172930 38.000000
47.192412 31.000000
47.211894 31.000000
47.231377 25.000000
47.250859 44.000000
47.270342 25.000000
47.289824 24.000000
47.309306 29.000000
47.328789 23.000000
47.348271 27.000000
47.367753 30.000000
47.387236 56.000000
47.406718 70.000000
47.426201 87.000000
47.445683 139.000000
47.465165 174.000000
47.484648 197.000000
47.504130 202.000000
47.523612 212.000000
47.543095 166.000000
47.562577 146.000000
47.582059 130.000000
47.601542 140.000000
47.621024 110.000000
47.640507 117.000000
47.659989 89.000000
47.679471 62.000000
47.698954 41.000000
47.718436 26.000000
47.737918 35.000000
47.757401 18.000000
47.776883 17.000000
47.796366 14.000000
47.815848 14.000000
47.835330 9.000000
47.854813 14.000000
47.874295 10.000000
47.893777 8.000000
47.913260 19.000000
47.932742 11.000000
47.952224 8.000000
47.971707 7.000000
47.991189 12.000000
48.010672 13.000000
48.030154 9.000000
48.049636 8.000000
48.069119 12.000000
48.088601 7.000000
48.108083 12.000000
48.127566 7.000000
48.147048 8.000000
48.166531 3.000000
48.186013 15.000000
48.205495 20.000000
48.224978 10.000000
48.244460 11.000000
48.263942 12.000000
48.283425 13.000000
48.302907 14.000000
48.322389 18.000000
48.341872 17.000000
48.361354 28.000000
48.380837 50.000000
48.400319 44.000000
48.419801 75.000000
48.439284 106.000000
48.458766 152.000000
48.478248 165.000000
48.497731 196.000000
48.517213 159.000000
48.536696 141.000000
48.556178 134.000000
48.575660 85.000000
48.595143 123.000000
48.614625 98.000000
48.634107 98.000000
48.653590 80.000000
48.673072 62.000000
48.692555 47.000000
48.712037 39.000000
48.731519 29.000000
48.751002 23.000000
48.770484 22.000000
48.789966 22.000000
48.809449 19.000000
48.828931 18.000000
48.848413 13.000000
48.867896 5.000000
48.887378 5.000000
48.906861 8.000000
48.926343 9.000000
48.945825 6.000000
48.965308 7.000000
48.984790 9.000000
49.004272 5.000000
49.023755 3.000000
49.043237 1.000000
49.062720 2.000000
49.082202 7.000000
49.101684 8.000000
49.121167 9.000000
49.140649 12.000000
49.160131 4.000000
49.179614 7.000000
49.199096 2.000000
49.218578 5.000000
49.238061 5.000000
49.257543 5.000000
49.277026 7.000000
49.296508 4.000000
49.315990 4.000000
49.335473 4.000000
49.354955 7.000000
49.374437 2.000000
49.393920 6.000000
49.413402 5.000000
49.432885 7.000000
49.452367 5.000000
49.471849 4.000000
49.491332 7.000000
49.510814 7.000000
49.530296 5.000000
49.549779 6.000000
49.569261 12.000000
49.588743 5.000000
49.608226 2.000000
49.627708 3.000000
49.647191 4.000000
49.666673 6.000000
49.686155 4.000000
49.705638 3.000000
49.725120 5.000000
49.744602 10.000000
49.764085 5.000000
49.783567 10.000000
49.803050 5.000000
49.822532 5.000000
49.842014 3.000000
49.861497 8.000000
49.880979 5.000000
49.900461 4.000000
49.919944 3.000000
49.939426 6.000000
49.958908 5.000000
49.978391 7.000000
49.997873 7.000000
50.017356 8.000000
50.036838 3.000000
50.056320 7.000000
50.075803 6.000000
50.095285 9.000000
50.114767 5.000000
50.134250 5.000000
50.153732 8.000000
50.173215 4.000000
50.192697 7.000000
50.212179 5.000000
50.231662 5.000000
50.251144 6.000000
50.270626 5.000000
50.290109 8.000000
50.309591 4.000000
50.329074 7.000000
50.348556 3.000000
50.368038 1.000000
50.387521 4.000000
50.407003 7.000000
50.426485 1.000000
50.445968 9.000000
50.465450 4.000000
50.484932 6.000000
50.504415 5.000000
50.523897 10.000000
50.543380 7.000000
50.562862 6.000000
50.582344 6.000000
50.601827 3.000000
50.621309 4.000000
50.640791 9.000000
50.660274 4.000000
50.679756 8.000000
50.699239 5.000000
50.718721 8.000000
50.738203 9.000000
50.757686 6.000000
50.777168 6.000000
50.796650 3.000000
50.816133 5.000000
50.835615 3.000000
50.855097 5.000000
50.874580 8.000000
50.894062 7.000000
50.913545 5.000000
50.933027 6.000000
50.952509 6.000000
50.971992 6.000000
50.991474 6.000000
51.010956 5.000000
51.030439 4.000000
51.049921 2.000000
51.069404 3.000000
51.088886 3.000000
51.108368 6.000000
51.127851 4.000000
51.147333 2.000000
51.166815 7.000000
51.186298 7.000000
51.205780 8.000000
51.225262 5.000000
51.244745 7.000000
51.264227 4.000000
51.283710 4.000000
51.303192 6.000000
51.322674 4.000000
51.342157 2.000000
51.361639 4.000000
51.381121 0.000001
51.400604 2.000000
51.420086 4.000000
51.439569 7.000000
51.459051 3.000000
51.478533 5.000000
51.498016 3.000000
51.517498 1.000000
51.536980 2.000000
51.556463 3.000000
51.575945 2.000000
51.595427 2.000000
51.614910 5.000000
51.634392 4.000000
51.653875 3.000000
51.673357 1.000000
51.692839 4.000000
51.712322 4.000000
51.731804 5.000000
51.751286 3.000000
51.770769 6.000000
51.790251 5.000000
51.809734 3.000000
51.829216 5.000000
51.848698 8.000000
51.868181 4.000000
51.887663 1.000000
51.907145 2.000000
51.926628 8.000000
51.946110 2.000000
51.965593 6.000000
51.985075 7.000000
52.004557 6.000000
52.024040 5.000000
52.043522 3.000000
52.063004 4.000000
52.082487 2.000000
52.101969 2.000000
52.121451 5.000000
52.140934 6.000000
52.160416 6.000000
52.179899 6.000000
52.199381 5.000000
52.218863 6.000000
52.238346 6.000000
52.257828 3.000000
52.277310 4.000000
52.296793 5.000000
52.316275 3.000000
52.335758 5.000000
52.355240 9.000000
52.374722 6.000000
52.394205 4.000000
52.413687 2.000000
52.433169 4.000000
52.452652 6.000000
52.472134 5.000000
52.491616 4.000000
52.511099 10.000000
52.530581 3.000000
52.550064 2.000000
52.569546 3.000000
52.589028 4.000000
52.608511 5.000000
52.627993 2.000000
52.647475 7.000000
52.666958 8.000000
52.686440 6.000000
52.705923 6.000000
52.725405 3.000000
52.744887 6.000000
52.764370 4.000000
52.783852 6.000000
52.803334 4.000000
52.822817 3.000000
52.842299 2.000000
52.861781 3.000000
52.881264 4.000000
52.900746 5.000000
52.920229 4.000000
52.939711 4.000000
52.959193 7.000000
52.978676 5.000000
52.998158 1.000000
53.017640 2.000000
53.037123 4.000000
53.056605 3.000000
53.076088 5.000000
53.095570 2.000000
53.115052 5.000000
53.134535 7.000000
53.154017 3.000000
53.173499 7.000000
53.192982 3.000000
53.212464 5.000000
53.231946 5.000000
53.251429 8.000000
53.270911 5.000000
53.290394 3.000000
53.309876 4.000000
53.329358 3.000000
53.348841 3.000000
53.368323 4.000000
53.387805 5.000000
53.407288 3.000000
53.426770 8.000000
53.446253 2.000000
53.465735 5.000000
53.485217 4.000000
53.504700 4.000000
53.524182 4.000000
53.543664 5.000000
53.563147 5.000000
53.582629 4.000000
53.602112 6.000000
53.621594 7.000000
53.641076 4.000000
53.660559 1.000000
53.680041 4.000000
53.699523 5.000000
53.719006 3.000000
53.738488 3.000000
53.757970 5.000000
53.777453 4.000000
53.796935 2.000000
53.816418 5.000000
53.835900 3.000000
53.855382 4.000000
53.874865 4.000000
53.894347 2.000000
53.913829 5.000000
53.933312 6.000000
53.952794 5.000000
53.972277 1.000000
53.991759 2.000000
54.011241 6.000000
54.030724 2.000000
54.050206 0.000001
54.069688 4.000000
54.089171 5.000000
54.108653 2.000000
54.128135 0.000001
54.147618 4.000000
54.167100 4.000000
54.186583 3.000000
54.206065 3.000000
54.225547 7.000000
54.245030 3.000000
54.264512 5.000000
54.283994 7.000000
54.303477 1.000000
54.322959 3.000000
54.342442 2.000000
54.361924 3.000000
54.381406 3.000000
54.400889 0.000001
54.420371 7.000000
54.439853 7.000000
54.459336 2.000000
54.478818 3.000000
54.498300 6.000000
54.517783 7.000000
54.537265 6.000000
54.556748 4.000000
54.576230 2.000000
54.595712 7.000000
54.615195 8.000000
54.634677 1.000000
54.654159 6.000000
54.673642 5.000000
54.693124 1.000000
54.712607 7.000000
54.732089 4.000000
54.751571 3.000000
54.771054 2.000000
54.790536 3.000000
54.810018 2.000000
54.829501 2.000000
54.848983 2.000000
54.868465 2.000000
54.887948 8.000000
54.907430 6.000000
54.926913 5.000000
54.946395 6.000000
54.965877 1.000000
54.985360 5.000000
55.004842 1.000000
55.024324 2.000000
55.043807 1.000000
55.063289 1.000000
55.082772 2.000000
55.102254 4.000000
55.121736 7.000000
55.141219 7.000000
55.160701 5.000000
55.180183 4.000000
55.199666 4.000000
55.219148 7.000000
55.238630 2.000000
55.258113 3.000000
55.277595 7.000000
55.297078 3.000000
55.316560 4.000000
55.336042 5.000000
55.355525 5.000000
55.375007 4.000000
55.394489 5.000000
55.413972 6.000000
55.433454 3.000000
55.452937 1.000000
55.472419 6.000000
55.491901 4.000000
55.511384 5.000000
55.530866 5.000000
55.550348 3.000000
55.569831 3.000000
55.589313 4.000000
55.608796 4.000000
55.628278 4.000000
55.647760 4.000000
55.667243 1.000000
55.686725 3.000000
55.706207 4.000000
55.725690 2.000000
55.745172 7.000000
55.764654 3.000000
55.784137 6.000000
55.803619 5.000000
55.823102 2.000000
55.842584 1.000000
55.862066 3.000000
55.881549 3.000000
55.901031 3.000000
55.920513 6.000000
55.939996 5.000000
55.959478 4.000000
55.978961 2.000000
55.998443 5.000000
56.017925 4.000000
56.037408 6.000000
56.056890 5.000000
56.076372 5.000000
56.095855 4.000000
56.115337 8.000000
56.134819 6.000000
56.154302 6.000000
56.173784 6.000000
56.193267 6.000000
56.212749 3.000000
56.232231 5.000000
56.251714 3.000000
56.271196 8.000000
56.290678 2.000000
56.310161 9.000000
56.329643 5.000000
56.349126 2.000000
56.368608 1.000000
56.388090 9.000000
56.407573 6.000000
56.427055 9.000000
56.446537 7.000000
56.466020 10.000000
56.485502 15.000000
56.504984 23.000000
56.524467 30.000000
56.543949 21.000000
56.563432 20.000000
56.582914 16.000000
56.602396 17.000000
56.621879 17.000000
56.641361 20.000000
56.660843 16.000000
56.680326 25.000000
56.699808 24.000000
56.719291 16.000000
56.738773 14.000000
56.758255 7.000000
56.777738 13.000000
56.797220 10.000000
56.816702 8.000000
56.836185 8.000000
56.855667 7.000000
56.875149 8.000000
56.894632 5.000000
56.914114 6.000000
56.933597 8.000000
56.953079 5.000000
56.972561 7.000000
56.992044 7.000000
57.011526 5.000000
57.031008 6.000000
57.050491 8.000000
57.069973 8.000000
57.089456 2.000000
57.108938 11.000000
57.128420 7.000000
57.147903 6.000000
57.167385 10.000000
57.186867 12.000000
57.206350 10.000000
57.225832 13.000000
57.245315 11.000000
57.264797 19.000000
57.284279 12.000000
57.303762 22.000000
57.323244 22.000000
57.342726 34.000000
57.362209 59.000000
57.381691 42.000000
57.401173 61.000000
57.420656 47.000000
57.440138 39.000000
57.459621 32.000000
57.479103 24.000000
57.498585 21.000000
57.518068 21.000000
57.537550 24.000000
57.557032 24.000000
57.576515 34.000000
57.595997 22.000000
57.615480 28.000000
57.634962 15.000000
57.654444 12.000000
57.673927 14.000000
57.693409 3.000000
57.712891 14.000000
57.732374 6.000000
57.751856 10.000000
57.771338 4.000000
57.790821 7.000000
57.810303 5.000000
57.829786 8.000000
57.849268 7.000000
57.868750 3.000000
57.888233 5.000000
57.907715 4.000000
57.927197 6.000000
57.946680 5.000000
57.966162 8.000000
57.985645 11.000000
58.005127 12.000000
58.024609 12.000000
58.044092 11.000000
58.063574 20.000000
58.083056 13.000000
58.102539 15.000000
58.122021 14.000000
58.141503 4.000000
58.160986 5.000000
58.180468 6.000000
58.199951 9.000000
58.219433 9.000000
58.238915 16.000000
58.258398 8.000000
58.277880 3.000000
58.297362 7.000000
58.316845 4.000000
58.336327 6.000000
58.355810 5.000000
58.375292 3.000000
58.394774 10.000000
58.414257 4.000000
58.433739 6.000000
58.453221 5.000000
58.472704 1.000000
58.492186 5.000000
58.511668 3.000000
58.531151 4.000000
58.550633 2.000000
58.570116 2.000000
58.589598 4.000000
58.609080 4.000000
58.628563 2.000000
58.648045 5.000000
58.667527 5.000000
58.687010 4.000000
58.706492 7.000000
58.725975 7.000000
58.745457 2.000000
58.764939 2.000000
58.784422 2.000000
58.803904 2.000000
58.823386 4.000000
58.842869 6.000000
58.862351 2.000000
58.881834 5.000000
58.901316 7.000000
58.920798 4.000000
58.940281 3.000000
58.959763 2.000000
58.979245 1.000000
58.998728 5.000000
59.018210 5.000000
59.037692 6.000000
59.057175 3.000000
59.076657 5.000000
59.096140 9.000000
59.115622 8.000000
59.135104 7.000000
59.154587 1.000000
59.174069 3.000000
59.193551 5.000000
59.213034 8.000000
59.232516 4.000000
59.251999 2.000000
59.271481 2.000000
59.290963 3.000000
59.310446 4.000000
59.329928 4.000000
59.349410 5.000000
59.368893 8.000000
59.388375 6.000000
59.407857 4.000000
59.427340 4.000000
59.446822 5.000000
59.466305 4.000000
59.485787 2.000000
59.505269 4.000000
59.524752 1.000000
59.544234 4.000000
59.563716 4.000000
59.583199 4.000000
59.602681 5.000000
59.622164 3.000000
59.641646 5.000000
59.661128 2.000000
59.680611 2.000000
59.700093 3.000000
59.719575 7.000000
59.739058 4.000000
59.758540 6.000000
59.778022 3.000000
59.797505 2.000000
59.816987 3.000000
59.836470 2.000000
59.855952 8.000000
59.875434 5.000000
59.894917 1.000000
59.914399 8.000000
59.933881 6.000000
59.953364 5.000000
59.972846 4.000000
59.992329 6.000000
60.011811 3.000000
60.031293 6.000000
60.050776 6.000000
60.070258 5.000000
60.089740 2.000000
60.109223 6.000000
60.128705 4.000000
60.148187 6.000000
60.167670 3.000000
60.187152 2.000000
60.206635 4.000000
60.226117 9.000000
60.245599 5.000000
60.265082 3.000000
60.284564 10.000000
60.304046 4.000000
60.323529 1.000000
60.343011 7.000000
60.362494 1.000000
60.381976 1.000000
60.401458 2.000000
60.420941 7.000000
60.440423 5.000000
60.459905 9.000000
60.479388 7.000000
60.498870 7.000000
60.518352 13.000000
60.537835 9.000000
60.557317 6.000000
60.576800 15.000000
60.596282 26.000000
60.615764 19.000000
60.635247 44.000000
60.654729 41.000000
60.674211 43.000000
60.693694 31.000000
60.713176 26.000000
60.732659 25.000000
60.752141 13.000000
60.771623 14.000000
60.791106 24.000000
60.810588 26.000000
60.830070 32.000000
60.849553 35.000000
60.869035 15.000000
60.888518 19.000000
60.908000 24.000000
60.927482 20.000000
60.946965 26.000000
60.966447 45.000000
60.985929 40.000000
61.005412 31.000000
61.024894 21.000000
61.044376 19.000000
61.063859 14.000000
61.083341 18.000000
61.102824 16.000000
61.122306 14.000000
61.141788 14.000000
61.161271 16.000000
61.180753 24.000000
61.200235 16.000000
61.219718 17.000000
61.239200 10.000000
61.258683 15.000000
61.278165 14.000000
61.297647 13.000000
61.317130 29.000000
61.336612 19.000000
61.356094 35.000000
61.375577 24.000000
61.395059 27.000000
61.414541 23.000000
61.434024 23.000000
61.453506 11.000000
61.472989 23.000000
61.492471 20.000000
61.511953 13.000000
61.531436 12.000000
61.550918 16.000000
61.570400 6.000000
61.589883 8.000000
61.609365 13.000000
61.628848 7.000000
61.648330 4.000000
61.667812 8.000000
61.687295 7.000000
61.706777 8.000000
61.726259 8.000000
61.745742 8.000000
61.765224 4.000000
61.784706 4.000000
61.804189 3.000000
61.823671 3.000000
61.843154 5.000000
61.862636 9.000000
61.882118 5.000000
61.901601 4.000000
61.921083 6.000000
61.940565 4.000000
61.960048 4.000000
61.979530 3.000000
61.999013 6.000000
62.018495 4.000000
62.037977 5.000000
62.057460 5.000000
62.076942 4.000000
62.096424 5.000000
62.115907 5.000000
62.135389 4.000000
62.154871 8.000000
62.174354 7.000000
62.193836 8.000000
62.213319 4.000000
62.232801 4.000000
62.252283 4.000000
62.271766 3.000000
62.291248 3.000000
62.310730 3.000000
62.330213 3.000000
62.349695 2.000000
62.369178 3.000000
62.388660 5.000000
62.408142 1.000000
62.427625 1.000000
62.447107 4.000000
62.466589 4.000000
62.486072 4.000000
62.505554 5.000000
62.525037 1.000000
62.544519 9.000000
62.564001 4.000000
62.583484 7.000000
62.602966 1.000000
62.622448 4.000000
62.641931 4.000000
62.661413 1.000000
62.680895 2.000000
62.700378 3.000000
62.719860 3.000000
62.739343 6.000000
62.758825 7.000000
62.778307 6.000000
62.797790 4.000000
62.817272 4.000000
62.836754 7.000000
62.856237 4.000000
62.875719 7.000000
62.895202 8.000000
62.914684 8.000000
62.934166 6.000000
62.953649 9.000000
62.973131 9.000000
62.992613 15.000000
63.012096 15.000000
63.031578 21.000000
63.051060 25.000000
63.070543 16.000000
63.090025 7.000000
63.109508 11.000000
63.128990 9.000000
63.148472 13.000000
63.167955 10.000000
63.187437 12.000000
63.206919 11.000000
63.226402 14.000000
63.245884 13.000000
63.265367 7.000000
63.284849 5.000000
63.304331 3.000000
63.323814 8.000000
63.343296 3.000000
63.362778 5.000000
63.382261 3.000000
63.401743 4.000000
63.421225 1.000000
63.440708 5.000000
63.460190 2.000000
63.479673 5.000000
63.499155 3.000000
63.518637 3.000000
63.538120 1.000000
63.557602 4.000000
63.577084 2.000000
63.596567 4.000000
63.616049 4.000000
63.635532 4.000000
63.655014 6.000000
63.674496 5.000000
63.693979 5.000000
63.713461 0.000001
63.732943 5.000000
63.752426 7.000000
63.771908 3.000000
63.791390 1.000000
63.810873 3.000000
63.830355 3.000000
63.849838 5.000000
63.869320 3.000000
63.888802 8.000000
63.908285 8.000000
63.927767 5.000000
63.947249 3.000000
63.966732 2.000000
63.986214 0.000001
64.005697 1.000000
64.025179 4.000000
64.044661 2.000000
64.064144 8.000000
64.083626 6.000000
64.103108 4.000000
64.122591 7.000000
64.142073 6.000000
64.161556 5.000000
64.181038 3.000000
64.200520 4.000000
64.220003 7.000000
64.239485 5.000000
64.258967 5.000000
64.278450 3.000000
64.297932 5.000000
64.317414 4.000000
64.336897 2.000000
64.356379 8.000000
64.375862 4.000000
64.395344 2.000000
64.414826 10.000000
64.434309 3.000000
64.453791 6.000000
64.473273 6.000000
64.492756 7.000000
64.512238 7.000000
64.531721 6.000000
64.551203 14.000000
64.570685 13.000000
64.590168 15.000000
64.609650 37.000000
64.629132 32.000000
64.648615 41.000000
64.668097 41.000000
64.687579 35.000000
64.707062 33.000000
64.726544 25.000000
64.746027 12.000000
64.765509 25.000000
64.784991 29.000000
64.804474 36.000000
64.823956 27.000000
64.843438 30.000000
64.862921 18.000000
64.882403 22.000000
64.901886 13.000000
64.921368 16.000000
64.940850 8.000000
64.960333 18.000000
64.979815 10.000000
64.999297 10.000000
65.018780 7.000000
65.038262 7.000000
65.057744 4.000000
65.077227 8.000000
65.096709 4.000000
65.116192 7.000000
65.135674 5.000000
65.155156 5.000000
65.174639 3.000000
65.194121 8.000000
65.213603 2.000000
65.233086 5.000000
65.252568 6.000000
65.272051 3.000000
65.291533 3.000000
65.311015 7.000000
65.330498 8.000000
65.349980 1.000000
65.369462 6.000000
65.388945 8.000000
65.408427 6.000000
65.427909 4.000000
65.447392 15.000000
65.466874 10.000000
65.486357 13.000000
65.505839 11.000000
65.525321 22.000000
65.544804 14.000000
65.564286 26.000000
65.583768 26.000000
65.603251 38.000000
65.622733 33.000000
65.642216 32.000000
65.661698 27.000000
65.681180 13.000000
65.700663 22.000000
65.720145 22.000000
65.739627 24.000000
65.759110 13.000000
65.778592 15.000000
65.798075 27.000000
65.817557 21.000000
65.837039 18.000000
65.856522 9.000000
65.876004 5.000000
65.895486 15.000000
65.914969 6.000000
65.934451 6.000000
65.953933 7.000000
65.973416 7.000000
65.992898 2.000000
66.012381 3.000000
66.031863 7.000000
66.051345 1.000000
66.070828 3.000000
66.090310 1.000000
66.109792 3.000000
66.129275 3.000000
66.148757 1.000000
66.168240 2.000000
66.187722 7.000000
66.207204 1.000000
66.226687 2.000000
66.246169 5.000000
66.265651 2.000000
66.285134 2.000000
66.304616 2.000000
66.324098 5.000000
66.343581 6.000000
66.363063 5.000000
66.382546 5.000000
66.402028 6.000000
66.421510 3.000000
66.440993 4.000000
66.460475 9.000000
66.479957 0.000001
66.499440 4.000000
66.518922 4.000000
66.538405 4.000000
66.557887 2.000000
66.577369 3.000000
66.596852 3.000000
66.616334 6.000000
66.635816 5.000000
66.655299 0.000001
66.674781 3.000000
66.694263 2.000000
66.713746 4.000000
66.733228 5.000000
66.752711 6.000000
66.772193 2.000000
66.791675 1.000000
66.811158 0.000001
66.830640 4.000000
66.850122 6.000000
66.869605 2.000000
66.889087 4.000000
66.908570 9.000000
66.928052 4.000000
66.947534 3.000000
66.967017 4.000000
66.986499 6.000000
67.005981 5.000000
67.025464 3.000000
67.044946 1.000000
67.064428 3.000000
67.083911 3.000000
67.103393 2.000000
67.122876 2.000000
67.142358 2.000000
67.161840 3.000000
67.181323 2.000000
67.200805 1.000000
67.220287 6.000000
67.239770 4.000000
67.259252 4.000000
67.278735 0.000001
67.298217 4.000000
67.317699 2.000000
67.337182 4.000000
67.356664 3.000000
67.376146 5.000000
67.395629 3.000000
67.415111 5.000000
67.434593 2.000000
67.454076 6.000000
67.473558 2.000000
67.493041 5.000000
67.512523 4.000000
67.532005 4.000000
67.551488 4.000000
67.570970 3.000000
67.590452 3.000000
67.609935 3.000000
67.629417 1.000000
67.648900 2.000000
67.668382 3.000000
67.687864 3.000000
67.707347 5.000000
67.726829 4.000000
67.746311 4.000000
67.765794 2.000000
67.785276 4.000000
67.804759 3.000000
67.824241 3.000000
67.843723 6.000000
67.863206 0.000001
67.882688 3.000000
67.902170 1.000000
67.921653 5.000000
67.941135 6.000000
67.960617 4.000000
67.980100 4.000000
67.999582 7.000000
68.019065 7.000000
68.038547 2.000000
68.058029 5.000000
68.077512 3.000000
68.096994 6.000000
68.116476 6.000000
68.135959 2.000000
68.155441 2.000000
68.174924 3.000000
68.194406 3.000000
68.213888 3.000000
68.233371 5.000000
68.252853 5.000000
68.272335 3.000000
68.291818 2.000000
68.311300 7.000000
68.330782 3.000000
68.350265 1.000000
68.369747 2.000000
68.389230 5.000000
68.408712 4.000000
68.428194 2.000000
68.447677 7.000000
68.467159 5.000000
68.486641 5.000000
68.506124 2.000000
68.525606 5.000000
68.545089 5.000000
68.564571 3.000000
68.584053 5.000000
68.603536 3.000000
68.623018 3.000000
68.642500 4.000000
68.661983 1.000000
68.681465 3.000000
68.700947 3.000000
68.720430 4.000000
68.739912 1.000000
68.759395 0.000001
68.778877 3.000000
68.798359 3.000000
68.817842 10.000000
68.837324 4.000000
68.856806 1.000000
68.876289 3.000000
68.895771 3.000000
68.915254 0.000001
68.934736 7.000000
68.954218 4.000000
68.973701 5.000000
68.993183 5.000000
69.012665 2.000000
69.032148 5.000000
69.051630 9.000000
69.071112 5.000000
69.090595 8.000000
69.110077 13.000000
69.129560 11.000000
69.149042 17.000000
69.168524 11.000000
69.188007 20.000000
69.207489 20.000000
69.226971 19.000000
69.246454 19.000000
69.265936 7.000000
69.285419 6.000000
69.304901 8.000000
69.324383 14.000000
69.343866 9.000000
69.363348 11.000000
69.382830 10.000000
69.402313 13.000000
69.421795 7.000000
69.441278 3.000000
69.460760 7.000000
69.480242 7.000000
69.499725 5.000000
69.519207 8.000000
69.538689 4.000000
69.558172 3.000000
69.577654 8.000000
69.597136 1.000000
69.616619 5.000000
69.636101 7.000000
69.655584 8.000000
69.675066 5.000000
69.694548 4.000000
69.714031 4.000000
69.733513 4.000000
69.752995 8.000000
69.772478 2.000000
69.791960 1.000000
69.811443 3.000000
69.830925 5.000000
69.850407 5.000000
69.869890 1.000000
69.889372 4.000000
69.908854 3.000000
69.928337 8.000000
69.947819 2.000000
69.967301 3.000000
69.986784 9.000000
70.006266 7.000000
70.025749 4.000000
