4.000000 999.000000
4.019482 970.000000
4.038965 920.000000
4.058447 935.000000
4.077929 968.000000
4.097412 866.000000
4.116894 923.000000
4.136377 874.000000
4.155859 821.000000
4.175341 843.000000
4.194824 830.000000
4.214306 848.000000
4.233788 799.000000
4.253271 807.000000
4.272753 717.000000
4.292236 744.000000
4.311718 751.000000
4.331200 764.000000
4.350683 741.000000
4.370165 708.000000
4.389647 758.000000
4.409130 706.000000
4.428612 709.000000
4.448094 715.000000
4.467577 696.000000
4.487059 703.000000
4.506542 647.000000
4.526024 618.000000
4.545506 695.000000
4.564989 597.000000
4.584471 651.000000
4.603953 623.000000
4.623436 656.000000
4.642918 584.000000
4.662401 575.000000
4.681883 558.000000
4.701365 566.000000
4.720848 606.000000
4.740330 603.000000
4.759812 545.000000
4.779295 569.000000
4.798777 548.000000
4.818259 544.000000
4.837742 569.000000
4.857224 553.000000
4.876707 532.000000
4.896189 520.000000
4.915671 524.000000
4.935154 521.000000
4.954636 499.000000
4.974118 570.000000
4.993601 482.000000
5.013083 471.000000
5.032566 517.000000
5.052048 533.000000
5.071530 490.000000
5.091013 494.000000
5.110495 482.000000
5.129977 472.000000
5.149460 473.000000
5.168942 450.000000
5.188425 468.000000
5.207907 464.000000
5.227389 483.000000
5.246872 445.000000
5.266354 403.000000
5.285836 470.000000
5.305319 417.000000
5.324801 432.000000
5.344283 467.000000
5.363766 479.000000
5.383248 454.000000
5.402731 386.000000
5.422213 420.000000
5.441695 391.000000
5.461178 363.000000
5.480660 440.000000
5.500142 403.000000
5.519625 395.000000
5.539107 379.000000
5.558590 401.000000
5.578072 391.000000
5.597554 410.000000
5.617037 356.000000
5.636519 351.000000
5.656001 394.000000
5.675484 387.000000
5.694966 380.000000
5.714448 383.000000
5.733931 397.000000
5.753413 396.000000
5.772896 403.000000
5.792378 367.000000
5.811860 330.000000
5.831343 387.000000
5.850825 341.000000
5.870307 328.000000
5.889790 376.000000
5.909272 369.000000
5.928755 363.000000
5.948237 334.000000
5.967719 343.000000
5.987202 364.000000
6.006684 351.000000
6.026166 333.000000
6.045649 330.000000
6.065131 330.000000
6.084613 331.000000
6.104096 349.000000
6.123578 334.000000
6.143061 290.000000
6.162543 322.000000
6.182025 300.000000
6.201508 318.000000
6.220990 327.000000
6.240472 329.000000
6.259955 320.000000
6.279437 314.000000
6.298920 294.000000
6.318402 291.000000
6.337884 315.000000
6.357367 307.000000
6.376849 282.000000
6.396331 313.000000
6.415814 308.000000
6.435296 339.000000
6.454778 298.000000
6.474261 311.000000
6.493743 298.000000
6.513226 280.000000
6.532708 262.000000
6.552190 280.000000
6.571673 281.000000
6.591155 285.000000
6.610637 290.000000
6.630120 286.000000
6.649602 298.000000
6.669085 270.000000
6.688567 257.000000
6.708049 290.000000
6.727532 248.000000
6.747014 249.000000
6.766496 271.000000
6.785979 279.000000
6.805461 295.000000
6.824944 254.000000
6.844426 235.000000
6.863908 253.000000
6.883391 265.000000
6.902873 249.000000
6.922355 253.000000
6.941838 253.000000
6.961320 243.000000
6.980802 238.000000
7.000285 262.000000
7.019767 241.000000
7.039250 246.000000
7.058732 267.000000
7.078214 248.000000
7.097697 271.000000
7.117179 219.000000
7.136661 216.000000
7.156144 229.000000
7.175626 231.000000
7.195109 225.000000
7.214591 221.000000
7.234073 269.000000
7.253556 244.000000
7.273038 239.000000
7.292520 225.000000
7.312003 234.000000
7.331485 219.000000
7.350967 254.000000
7.370450 246.000000
7.389932 253.000000
7.409415 213.000000
7.428897 227.000000
7.448379 216.000000
7.467862 219.000000
7.487344 223.000000
7.506826 222.000000
7.526309 229.000000
7.545791 216.000000
7.565274 239.000000
7.584756 202.000000
7.604238 202.000000
7.623721 222.000000
7.643203 246.000000
7.662685 264.000000
7.682168 204.000000
7.701650 215.000000
7.721132 199.000000
7.740615 222.000000
7.760097 228.000000
7.779580 183.000000
7.799062 236.000000
7.818544 207.000000
7.838027 195.000000
7.857509 224.000000
7.876991 196.000000
7.896474 231.000000
7.915956 217.000000
7.935439 238.000000
7.954921 212.000000
7.974403 206.000000
7.993886 239.000000
8.013368 188.000000
8.032850 221.000000
8.052333 206.000000
8.071815 207.000000
8.091297 207.000000
8.110780 210.000000
8.130262 226.000000
8.149745 237.000000
8.169227 197.000000
8.188709 206.000000
8.208192 221.000000
8.227674 211.000000
8.247156 213.000000
8.266639 211.000000
8.286121 229.000000
8.305604 202.000000
8.325086 218.000000
8.344568 216.000000
8.364051 242.000000
8.383533 191.000000
8.403015 194.000000
8.422498 198.000000
8.441980 219.000000
8.461463 225.000000
8.480945 202.000000
8.500427 191.000000
8.519910 197.000000
8.539392 205.000000
8.558874 191.000000
8.578357 190.000000
8.597839 239.000000
8.617321 200.000000
8.636804 186.000000
8.656286 191.000000
8.675769 195.000000
8.695251 209.000000
8.714733 199.000000
8.734216 212.000000
8.753698 204.000000
8.773180 206.000000
8.792663 196.000000
8.812145 202.000000
8.831628 193.000000
8.851110 197.000000
8.870592 182.000000
8.890075 204.000000
8.909557 186.000000
8.929039 212.000000
8.948522 181.000000
8.968004 168.000000
8.987486 180.000000
9.006969 198.000000
9.026451 196.000000
9.045934 227.000000
9.065416 201.000000
9.084898 186.000000
9.104381 182.000000
9.123863 205.000000
9.143345 185.000000
9.162828 209.000000
9.182310 186.000000
9.201793 192.000000
9.221275 187.000000
9.240757 183.000000
9.260240 202.000000
9.279722 203.000000
9.299204 175.000000
9.318687 200.000000
9.338169 208.000000
9.357651 193.000000
9.377134 197.000000
9.396616 184.000000
9.416099 209.000000
9.435581 195.000000
9.455063 171.000000
9.474546 190.000000
9.494028 189.000000
9.513510 203.000000
9.532993 181.000000
9.552475 194.000000
9.571958 190.000000
9.591440 178.000000
9.610922 184.000000
9.630405 185.000000
9.649887 204.000000
9.669369 181.000000
9.688852 191.000000
9.708334 194.000000
9.727816 181.000000
9.747299 200.000000
9.766781 179.000000
9.786264 189.000000
9.805746 187.000000
9.825228 181.000000
9.844711 211.000000
9.864193 193.000000
9.883675 188.000000
9.903158 177.000000
9.922640 201.000000
9.942123 215.000000
9.961605 167.000000
9.981087 212.000000
10.000570 192.000000
10.020052 203.000000
10.039534 176.000000
10.059017 194.000000
10.078499 190.000000
10.097982 179.000000
10.117464 177.000000
10.136946 190.000000
10.156429 190.000000
10.175911 201.000000
10.195393 195.000000
10.214876 175.000000
10.234358 202.000000
10.253840 161.000000
10.273323 170.000000
10.292805 189.000000
10.312288 178.000000
10.331770 179.000000
10.351252 209.000000
10.370735 175.000000
10.390217 219.000000
10.409699 179.000000
10.429182 189.000000
10.448664 196.000000
10.468147 175.000000
10.487629 187.000000
10.507111 173.000000
10.526594 173.000000
10.546076 162.000000
10.565558 166.000000
10.585041 185.000000
10.604523 168.000000
10.624005 192.000000
10.643488 188.000000
10.662970 181.000000
10.682453 157.000000
10.701935 180.000000
10.721417 192.000000
10.740900 189.000000
10.760382 170.000000
10.779864 182.000000
10.799347 165.000000
10.818829 153.000000
10.838312 175.000000
10.857794 188.000000
10.877276 175.000000
10.896759 169.000000
10.916241 175.000000
10.935723 163.000000
10.955206 162.000000
10.974688 183.000000
10.994170 179.000000
11.013653 185.000000
11.033135 159.000000
11.052618 224.000000
11.072100 192.000000
11.091582 178.000000
11.111065 200.000000
11.130547 170.000000
11.150029 184.000000
11.169512 170.000000
11.188994 200.000000
11.208477 200.000000
11.227959 180.000000
11.247441 176.000000
11.266924 181.000000
11.286406 164.000000
11.305888 198.000000
11.325371 187.000000
11.344853 193.000000
11.364335 167.000000
11.383818 175.000000
11.403300 178.000000
11.422783 170.000000
11.442265 198.000000
11.461747 158.000000
11.481230 160.000000
11.500712 184.000000
11.520194 185.000000
11.539677 193.000000
11.559159 166.000000
11.578642 182.000000
11.598124 181.000000
11.617606 177.000000
11.637089 185.000000
11.656571 189.000000
11.676053 147.000000
11.695536 169.000000
11.715018 188.000000
11.734500 172.000000
11.753983 180.000000
11.773465 158.000000
11.792948 182.000000
11.812430 155.000000
11.831912 179.000000
11.851395 175.000000
11.870877 162.000000
11.890359 161.000000
11.909842 164.000000
11.929324 155.000000
11.948807 180.000000
11.968289 174.000000
11.987771 192.000000
12.007254 159.000000
12.026736 178.000000
12.046218 186.000000
12.065701 163.000000
12.085183 166.000000
12.104666 195.000000
12.124148 184.000000
12.143630 160.000000
12.163113 187.000000
12.182595 160.000000
12.202077 174.000000
12.221560 174.000000
12.241042 182.000000
12.260524 182.000000
12.280007 174.000000
12.299489 171.000000
12.318972 155.000000
12.338454 165.000000
12.357936 163.000000
12.377419 163.000000
12.396901 184.000000
12.416383 159.000000
12.435866 149.000000
12.455348 150.000000
12.474831 169.000000
12.494313 177.000000
12.513795 129.000000
12.533278 193.000000
12.552760 168.000000
12.572242 184.000000
12.591725 186.000000
12.611207 176.000000
12.630689 173.000000
12.650172 150.000000
12.669654 171.000000
12.689137 185.000000
12.708619 150.000000
12.728101 166.000000
12.747584 154.000000
12.767066 161.000000
12.786548 173.000000
12.806031 151.000000
12.825513 165.000000
12.844996 159.000000
12.864478 168.000000
12.883960 152.000000
12.903443 159.000000
12.922925 195.000000
12.942407 164.000000
12.961890 186.000000
12.981372 167.000000
13.000854 163.000000
13.020337 154.000000
13.039819 134.000000
13.059302 163.000000
13.078784 143.000000
13.098266 178.000000
13.117749 143.000000
13.137231 153.000000
13.156713 173.000000
13.176196 169.000000
13.195678 172.000000
13.215161 149.000000
13.234643 162.000000
13.254125 183.000000
13.273608 145.000000
13.293090 179.000000
13.312572 168.000000
13.332055 158.000000
13.351537 143.000000
13.371019 142.000000
13.390502 158.000000
13.409984 146.000000
13.429467 150.000000
13.448949 182.000000
13.468431 160.000000
13.487914 162.000000
13.507396 155.000000
13.526878 155.000000
13.546361 169.000000
13.565843 141.000000
13.585326 164.000000
13.604808 166.000000
13.624290 169.000000
13.643773 170.000000
13.663255 143.000000
13.682737 154.000000
13.702220 162.000000
13.721702 158.000000
13.741185 164.000000
13.760667 156.000000
13.780149 135.000000
13.799632 150.000000
13.819114 162.000000
13.838596 159.000000
13.858079 165.000000
13.877561 158.000000
13.897043 149.000000
13.916526 168.000000
13.936008 145.000000
13.955491 153.000000
13.974973 153.000000
13.994455 152.000000
14.013938 148.000000
14.033420 129.000000
14.052902 136.000000
14.072385 147.000000
14.091867 167.000000
14.111350 147.000000
14.130832 155.000000
14.150314 161.000000
14.169797 168.000000
14.189279 154.000000
14.208761 158.000000
14.228244 151.000000
14.247726 147.000000
14.267208 144.000000
14.286691 132.000000
14.306173 135.000000
14.325656 188.000000
14.345138 153.000000
14.364620 154.000000
14.384103 158.000000
14.403585 150.000000
14.423067 167.000000
14.442550 127.000000
14.462032 139.000000
14.481515 158.000000
14.500997 156.000000
14.520479 134.000000
14.539962 172.000000
14.559444 149.000000
14.578926 160.000000
14.598409 150.000000
14.617891 139.000000
14.637373 139.000000
14.656856 117.000000
14.676338 146.000000
14.695821 149.000000
14.715303 165.000000
14.734785 142.000000
14.754268 146.000000
14.773750 147.000000
14.793232 153.000000
14.812715 138.000000
14.832197 148.000000
14.851680 140.000000
14.871162 138.000000
14.890644 140.000000
14.910127 143.000000
14.929609 141.000000
14.949091 171.000000
14.968574 134.000000
14.988056 129.000000
15.007538 155.000000
15.027021 133.000000
15.046503 132.000000
15.065986 128.000000
15.085468 140.000000
15.104950 133.000000
15.124433 131.000000
15.143915 161.000000
15.163397 146.000000
15.182880 143.000000
15.202362 150.000000
15.221845 153.000000
15.241327 154.000000
15.260809 143.000000
15.280292 124.000000
15.299774 132.000000
15.319256 120.000000
15.338739 139.000000
15.358221 124.000000
15.377704 142.000000
15.397186 126.000000
15.416668 115.000000
15.436151 131.000000
15.455633 126.000000
15.475115 114.000000
15.494598 139.000000
15.514080 139.000000
15.533562 141.000000
15.553045 144.000000
15.572527 113.000000
15.592010 136.000000
15.611492 157.000000
15.630974 133.000000
15.650457 146.000000
15.669939 124.000000
15.689421 123.000000
15.708904 117.000000
15.728386 171.000000
15.747869 132.000000
15.767351 113.000000
15.786833 122.000000
15.806316 119.000000
15.825798 110.000000
15.845280 101.000000
15.864763 115.000000
15.884245 140.000000
15.903727 134.000000
15.923210 119.000000
15.942692 122.000000
15.962175 122.000000
15.981657 139.000000
16.001139 113.000000
16.020622 133.000000
16.040104 149.000000
16.059586 124.000000
16.079069 128.000000
16.098551 121.000000
16.118034 126.000000
16.137516 102.000000
16.156998 121.000000
16.176481 133.000000
16.195963 125.000000
16.215445 121.000000
16.234928 133.000000
16.254410 132.000000
16.273892 120.000000
16.293375 114.000000
16.312857 129.000000
16.332340 106.000000
16.351822 141.000000
16.371304 127.000000
16.390787 129.000000
16.410269 127.000000
16.429751 125.000000
16.449234 145.000000
16.468716 119.000000
16.488199 130.000000
16.507681 121.000000
16.527163 129.000000
16.546646 126.000000
16.566128 138.000000
16.585610 111.000000
16.605093 102.000000
16.624575 108.000000
16.644057 107.000000
16.663540 122.000000
16.683022 124.000000
16.702505 114.000000
16.721987 100.000000
16.741469 127.000000
16.760952 109.000000
16.780434 114.000000
16.799916 145.000000
16.819399 125.000000
16.838881 113.000000
16.858364 124.000000
16.877846 108.000000
16.897328 123.000000
16.916811 129.000000
16.936293 102.000000
16.955775 120.000000
16.975258 107.000000
16.994740 113.000000
17.014222 116.000000
17.033705 139.000000
17.053187 112.000000
17.072670 131.000000
17.092152 125.000000
17.111634 127.000000
17.131117 127.000000
17.150599 122.000000
17.170081 116.000000
17.189564 124.000000
17.209046 125.000000
17.228529 122.000000
17.248011 117.000000
17.267493 97.000000
17.286976 101.000000
17.306458 122.000000
17.325940 95.000000
17.345423 122.000000
17.364905 114.000000
17.384388 103.000000
17.403870 115.000000
17.423352 109.000000
17.442835 127.000000
17.462317 114.000000
17.481799 129.000000
17.501282 108.000000
17.520764 107.000000
17.540246 109.000000
17.559729 111.000000
17.579211 106.000000
17.598694 110.000000
17.618176 110.000000
17.637658 112.000000
17.657141 105.000000
17.676623 118.000000
17.696105 108.000000
17.715588 105.000000
17.735070 95.000000
17.754553 104.000000
17.774035 112.000000
17.793517 122.000000
17.813000 95.000000
17.832482 107.000000
17.851964 132.000000
17.871447 109.000000
17.890929 101.000000
17.910411 89.000000
17.929894 124.000000
17.949376 90.000000
17.968859 111.000000
17.988341 86.000000
18.007823 125.000000
18.027306 117.000000
18.046788 99.000000
18.066270 109.000000
18.085753 119.000000
18.105235 101.000000
18.124718 110.000000
18.144200 83.000000
18.163682 105.000000
18.183165 106.000000
18.202647 95.000000
18.222129 105.000000
18.241612 90.000000
18.261094 95.000000
18.280576 96.000000
18.300059 99.000000
18.319541 100.000000
18.339024 106.000000
18.358506 113.000000
18.377988 82.000000
18.397471 110.000000
18.416953 99.000000
18.436435 95.000000
18.455918 95.000000
18.475400 93.000000
18.494883 102.000000
18.514365 117.000000
18.533847 102.000000
18.553330 100.000000
18.572812 94.000000
18.592294 102.000000
18.611777 106.000000
18.631259 104.000000
18.650741 98.000000
18.670224 100.000000
18.689706 80.000000
18.709189 104.000000
18.728671 111.000000
18.748153 106.000000
18.767636 100.000000
18.787118 114.000000
18.806600 114.000000
18.826083 100.000000
18.845565 96.000000
18.865048 104.000000
18.884530 123.000000
18.904012 86.000000
18.923495 114.000000
18.942977 83.000000
18.962459 102.000000
18.981942 98.000000
19.001424 83.000000
19.020907 81.000000
19.040389 102.000000
19.059871 93.000000
19.079354 107.000000
19.098836 87.000000
19.118318 85.000000
19.137801 100.000000
19.157283 94.000000
19.176765 100.000000
19.196248 88.000000
19.215730 97.000000
19.235213 108.000000
19.254695 94.000000
19.274177 70.000000
19.293660 106.000000
19.313142 89.000000
19.332624 98.000000
19.352107 80.000000
19.371589 106.000000
19.391072 118.000000
19.410554 82.000000
19.430036 91.000000
19.449519 88.000000
19.469001 96.000000
19.488483 88.000000
19.507966 87.000000
19.527448 101.000000
19.546930 89.000000
19.566413 92.000000
19.585895 91.000000
19.605378 64.000000
19.624860 113.000000
19.644342 74.000000
19.663825 102.000000
19.683307 83.000000
19.702789 85.000000
19.722272 87.000000
19.741754 93.000000
19.761237 73.000000
19.780719 80.000000
19.800201 90.000000
19.819684 89.000000
19.839166 109.000000
19.858648 100.000000
19.878131 85.000000
19.897613 84.000000
19.917095 84.000000
19.936578 97.000000
19.956060 82.000000
19.975543 68.000000
19.995025 110.000000
20.014507 85.000000
20.033990 80.000000
20.053472 110.000000
20.072954 104.000000
20.092437 107.000000
20.111919 89.000000
20.131402 107.000000
20.150884 101.000000
20.170366 88.000000
20.189849 89.000000
20.209331 109.000000
20.228813 86.000000
20.248296 92.000000
20.267778 83.000000
20.287260 85.000000
20.306743 82.000000
20.326225 110.000000
20.345708 95.000000
20.365190 100.000000
20.384672 100.000000
20.404155 97.000000
20.423637 87.000000
20.443119 82.000000
20.462602 91.000000
20.482084 95.000000
20.501567 76.000000
20.521049 91.000000
20.540531 83.000000
20.560014 96.000000
20.579496 93.000000
20.598978 67.000000
20.618461 88.000000
20.637943 83.000000
20.657426 92.000000
20.676908 94.000000
20.696390 85.000000
20.715873 90.000000
20.735355 90.000000
20.754837 92.000000
20.774320 93.000000
20.793802 79.000000
20.813284 81.000000
20.832767 90.000000
20.852249 87.000000
20.871732 94.000000
20.891214 101.000000
20.910696 99.000000
20.930179 70.000000
20.949661 74.000000
20.969143 80.000000
20.988626 85.000000
21.008108 94.000000
21.027591 83.000000
21.047073 83.000000
21.066555 74.000000
21.086038 90.000000
21.105520 91.000000
21.125002 94.000000
21.144485 89.000000
21.163967 91.000000
21.183449 87.000000
21.202932 113.000000
21.222414 88.000000
21.241897 79.000000
21.261379 81.000000
21.280861 96.000000
21.300344 79.000000
21.319826 89.000000
21.339308 83.000000
21.358791 93.000000
21.378273 84.000000
21.397756 81.000000
21.417238 86.000000
21.436720 94.000000
21.456203 72.000000
21.475685 84.000000
21.495167 83.000000
21.514650 75.000000
21.534132 79.000000
21.553614 85.000000
21.573097 95.000000
21.592579 93.000000
21.612062 98.000000
21.631544 80.000000
21.651026 67.000000
21.670509 84.000000
21.689991 78.000000
21.709473 75.000000
21.728956 104.000000
21.748438 84.000000
21.767921 63.000000
21.787403 88.000000
21.806885 66.000000
21.826368 98.000000
21.845850 86.000000
21.865332 76.000000
21.884815 81.000000
21.904297 78.000000
21.923779 107.000000
21.943262 78.000000
21.962744 80.000000
21.982227 84.000000
22.001709 76.000000
22.021191 92.000000
22.040674 81.000000
22.060156 90.000000
22.079638 99.000000
22.099121 80.000000
22.118603 108.000000
22.138086 84.000000
22.157568 85.000000
22.177050 94.000000
22.196533 80.000000
22.216015 87.000000
22.235497 92.000000
22.254980 68.000000
22.274462 84.000000
22.293945 77.000000
22.313427 102.000000
22.332909 100.000000
22.352392 97.000000
22.371874 102.000000
22.391356 102.000000
22.410839 105.000000
22.430321 92.000000
22.449803 72.000000
22.469286 72.000000
22.488768 86.000000
22.508251 79.000000
22.527733 102.000000
22.547215 86.000000
22.566698 101.000000
22.586180 94.000000
22.605662 101.000000
22.625145 86.000000
22.644627 85.000000
22.664110 71.000000
22.683592 109.000000
22.703074 74.000000
22.722557 69.000000
22.742039 101.000000
22.761521 95.000000
22.781004 99.000000
22.800486 111.000000
22.819968 104.000000
22.839451 99.000000
22.858933 99.000000
22.878416 116.000000
22.897898 132.000000
22.917380 157.000000
22.936863 176.000000
22.956345 264.000000
22.975827 403.000000
22.995310 654.000000
23.014792 983.000000
23.034275 1155.000000
23.053757 1193.000000
23.073239 906.000000
23.092722 802.000000
23.112204 625.000000
23.131686 441.000000
23.151169 259.000000
23.170651 167.000000
23.190133 155.000000
23.209616 143.000000
23.229098 139.000000
23.248581 107.000000
23.268063 108.000000
23.287545 99.000000
23.307028 107.000000
23.326510 98.000000
23.345992 85.000000
23.365475 104.000000
23.384957 80.000000
23.404440 92.000000
23.423922 99.000000
23.443404 103.000000
23.462887 76.000000
23.482369 64.000000
23.501851 73.000000
23.521334 94.000000
23.540816 78.000000
23.560298 69.000000
23.579781 88.000000
23.599263 74.000000
23.618746 58.000000
23.638228 88.000000
23.657710 86.000000
23.677193 86.000000
23.696675 78.000000
23.716157 88.000000
23.735640 76.000000
23.755122 74.000000
23.774605 78.000000
23.794087 89.000000
23.813569 87.000000
23.833052 82.000000
23.852534 82.000000
23.872016 82.000000
23.891499 70.000000
23.910981 89.000000
23.930463 82.000000
23.949946 81.000000
23.969428 80.000000
23.988911 81.000000
24.008393 89.000000
24.027875 79.000000
24.047358 97.000000
24.066840 71.000000
24.086322 66.000000
24.105805 84.000000
24.125287 72.000000
24.144770 86.000000
24.164252 88.000000
24.183734 82.000000
24.203217 92.000000
24.222699 77.000000
24.242181 91.000000
24.261664 69.000000
24.281146 77.000000
24.300629 92.000000
24.320111 83.000000
24.339593 74.000000
24.359076 92.000000
24.378558 66.000000
24.398040 76.000000
24.417523 76.000000
24.437005 86.000000
24.456487 72.000000
24.475970 82.000000
24.495452 74.000000
24.514935 64.000000
24.534417 75.000000
24.553899 94.000000
24.573382 75.000000
24.592864 65.000000
24.612346 73.000000
24.631829 70.000000
24.651311 80.000000
24.670794 74.000000
24.690276 68.000000
24.709758 70.000000
24.729241 88.000000
24.748723 71.000000
24.768205 65.000000
24.787688 80.000000
24.807170 64.000000
24.826652 72.000000
24.846135 67.000000
24.865617 92.000000
24.885100 83.000000
24.904582 75.000000
24.924064 75.000000
24.943547 74.000000
24.963029 79.000000
24.982511 58.000000
25.001994 69.000000
25.021476 68.000000
25.040959 63.000000
25.060441 61.000000
25.079923 65.000000
25.099406 86.000000
25.118888 76.000000
25.138370 71.000000
25.157853 77.000000
25.177335 91.000000
25.196817 77.000000
25.216300 84.000000
25.235782 69.000000
25.255265 72.000000
25.274747 80.000000
25.294229 97.000000
25.313712 68.000000
25.333194 75.000000
25.352676 72.000000
25.372159 65.000000
25.391641 83.000000
25.411124 81.000000
25.430606 73.000000
25.450088 83.000000
25.469571 84.000000
25.489053 65.000000
25.508535 72.000000
25.528018 76.000000
25.547500 63.000000
25.566982 60.000000
25.586465 74.000000
25.605947 85.000000
25.625430 59.000000
25.644912 65.000000
25.664394 57.000000
25.683877 64.000000
25.703359 68.000000
25.722841 82.000000
25.742324 81.000000
25.761806 76.000000
25.781289 82.000000
25.800771 64.000000
25.820253 67.000000
25.839736 78.000000
25.859218 67.000000
25.878700 77.000000
25.898183 84.000000
25.917665 76.000000
25.937148 86.000000
25.956630 76.000000
25.976112 87.000000
25.995595 79.000000
26.015077 79.000000
26.034559 73.000000
26.054042 73.000000
26.073524 82.000000
26.093006 73.000000
26.112489 71.000000
26.131971 58.000000
26.151454 73.000000
26.170936 69.000000
26.190418 69.000000
26.209901 69.000000
26.229383 69.000000
26.248865 88.000000
26.268348 66.000000
26.287830 68.000000
26.307313 74.000000
26.326795 84.000000
26.346277 78.000000
26.365760 70.000000
26.385242 77.000000
26.404724 75.000000
26.424207 89.000000
26.443689 114.000000
26.463171 104.000000
26.482654 113.000000
26.502136 142.000000
26.521619 110.000000
26.541101 111.000000
26.560583 84.000000
26.580066 84.000000
26.599548 99.000000
26.619030 95.000000
26.638513 81.000000
26.657995 124.000000
26.677478 133.000000
26.696960 116.000000
26.716442 98.000000
26.735925 104.000000
26.755407 95.000000
26.774889 96.000000
26.794372 72.000000
26.813854 74.000000
26.833336 73.000000
26.852819 63.000000
26.872301 85.000000
26.891784 67.000000
26.911266 79.000000
26.930748 70.000000
26.950231 79.000000
26.969713 72.000000
26.989195 83.000000
27.008678 74.000000
27.028160 77.000000
27.047643 72.000000
27.067125 87.000000
27.086607 65.000000
27.106090 64.000000
27.125572 64.000000
27.145054 63.000000
27.164537 59.000000
27.184019 71.000000
27.203501 58.000000
27.222984 73.000000
27.242466 51.000000
27.261949 66.000000
27.281431 72.000000
27.300913 70.000000
27.320396 71.000000
27.339878 57.000000
27.359360 71.000000
27.378843 79.000000
27.398325 85.000000
27.417808 55.000000
27.437290 76.000000
27.456772 64.000000
27.476255 60.000000
27.495737 85.000000
27.515219 60.000000
27.534702 65.000000
27.554184 81.000000
27.573667 69.000000
27.593149 83.000000
27.612631 70.000000
27.632114 71.000000
27.651596 78.000000
27.671078 51.000000
27.690561 72.000000
27.710043 65.000000
27.729525 66.000000
27.749008 62.000000
27.768490 83.000000
27.787973 64.000000
27.807455 64.000000
27.826937 75.000000
27.846420 59.000000
27.865902 72.000000
27.885384 73.000000
27.904867 73.000000
27.924349 55.000000
27.943832 66.000000
27.963314 60.000000
27.982796 83.000000
28.002279 70.000000
28.021761 56.000000
28.041243 77.000000
28.060726 86.000000
28.080208 77.000000
28.099690 79.000000
28.119173 70.000000
28.138655 71.000000
28.158138 79.000000
28.177620 83.000000
28.197102 69.000000
28.216585 67.000000
28.236067 82.000000
28.255549 62.000000
28.275032 84.000000
28.294514 79.000000
28.313997 80.000000
28.333479 80.000000
28.352961 111.000000
28.372444 101.000000
28.391926 128.000000
28.411408 128.000000
28.430891 106.000000
28.450373 113.000000
28.469855 122.000000
28.489338 151.000000
28.508820 137.000000
28.528303 113.000000
28.547785 152.000000
28.567267 138.000000
28.586750 131.000000
28.606232 120.000000
28.625714 128.000000
28.645197 139.000000
28.664679 127.000000
28.684162 100.000000
28.703644 127.000000
28.723126 122.000000
28.742609 114.000000
28.762091 134.000000
28.781573 119.000000
28.801056 165.000000
28.820538 115.000000
28.840020 132.000000
28.859503 142.000000
28.878985 166.000000
28.898468 156.000000
28.917950 154.000000
28.937432 158.000000
28.956915 170.000000
28.976397 153.000000
28.995879 189.000000
29.015362 172.000000
29.034844 191.000000
29.054327 221.000000
29.073809 242.000000
29.093291 271.000000
29.112774 263.000000
29.132256 307.000000
29.151738 350.000000
29.171221 414.000000
29.190703 451.000000
29.210185 561.000000
29.229668 730.000000
29.249150 915.000000
29.268633 1244.000000
29.288115 1692.000000
29.307597 2947.000000
29.327080 5353.000000
29.346562 10116.000000
29.366044 16283.000000
29.385527 20349.000000
29.405009 18656.000000
29.424492 13737.000000
29.443974 11845.000000
29.463456 11291.000000
29.482939 8452.000000
29.502421 4619.000000
29.521903 2304.000000
29.541386 1375.000000
29.560868 920.000000
29.580351 716.000000
29.599833 584.000000
29.619315 510.000000
29.638798 418.000000
29.658280 381.000000
29.677762 291.000000
29.697245 269.000000
29.716727 226.000000
29.736209 231.000000
29.755692 237.000000
29.775174 217.000000
29.794657 202.000000
29.814139 198.000000
29.833621 202.000000
29.853104 166.000000
29.872586 176.000000
29.892068 145.000000
29.911551 129.000000
29.931033 140.000000
29.950516 155.000000
29.969998 132.000000
29.989480 117.000000
30.008963 127.000000
30.028445 140.000000
30.047927 116.000000
30.067410 118.000000
30.086892 119.000000
30.106374 109.000000
30.125857 99.000000
30.145339 109.000000
30.164822 118.000000
30.184304 116.000000
30.203786 126.000000
30.223269 104.000000
30.242751 125.000000
30.262233 101.000000
30.281716 120.000000
30.301198 105.000000
30.320681 112.000000
30.340163 107.000000
30.359645 104.000000
30.379128 104.000000
30.398610 106.000000
30.418092 102.000000
30.437575 100.000000
30.457057 116.000000
30.476539 109.000000
30.496022 124.000000
30.515504 113.000000
30.534987 93.000000
30.554469 92.000000
30.573951 85.000000
30.593434 101.000000
30.612916 105.000000
30.632398 103.000000
30.651881 114.000000
30.671363 98.000000
30.690846 112.000000
30.710328 81.000000
30.729810 109.000000
30.749293 84.000000
30.768775 83.000000
30.788257 105.000000
30.807740 96.000000
30.827222 73.000000
30.846704 95.000000
30.866187 94.000000
30.885669 90.000000
30.905152 106.000000
30.924634 95.000000
30.944116 89.000000
30.963599 98.000000
30.983081 88.000000
31.002563 85.000000
31.022046 108.000000
31.041528 98.000000
31.061011 80.000000
31.080493 92.000000
31.099975 88.000000
31.119458 80.000000
31.138940 75.000000
31.158422 95.000000
31.177905 95.000000
31.197387 96.000000
31.216870 84.000000
31.236352 114.000000
31.255834 85.000000
31.275317 109.000000
31.294799 115.000000
31.314281 114.000000
31.333764 124.000000
31.353246 190.000000
31.372728 280.000000
31.392211 327.000000
31.411693 439.000000
31.431176 418.000000
31.450658 338.000000
31.470140 285.000000
31.489623 276.000000
31.509105 262.000000
31.528587 206.000000
31.548070 147.000000
31.567552 122.000000
31.587035 108.000000
31.606517 96.000000
31.625999 111.000000
31.645482 90.000000
31.664964 94.000000
31.684446 94.000000
31.703929 81.000000
31.723411 89.000000
31.742893 74.000000
31.762376 83.000000
31.781858 104.000000
31.801341 81.000000
31.820823 89.000000
31.840305 89.000000
31.859788 91.000000
31.879270 74.000000
31.898752 74.000000
31.918235 84.000000
31.937717 81.000000
31.957200 88.000000
31.976682 90.000000
31.996164 90.000000
32.015647 75.000000
32.035129 81.000000
32.054611 83.000000
32.074094 77.000000
32.093576 86.000000
32.113058 83.000000
32.132541 69.000000
32.152023 79.000000
32.171506 82.000000
32.190988 81.000000
32.210470 80.000000
32.229953 49.000000
32.249435 84.000000
32.268917 61.000000
32.288400 68.000000
32.307882 83.000000
32.327365 78.000000
32.346847 78.000000
32.366329 65.000000
32.385812 111.000000
32.405294 70.000000
32.424776 62.000000
32.444259 81.000000
32.463741 77.000000
32.483223 75.000000
32.502706 73.000000
32.522188 70.000000
32.541671 74.000000
32.561153 72.000000
32.580635 75.000000
32.600118 78.000000
32.619600 68.000000
32.639082 67.000000
32.658565 73.000000
32.678047 60.000000
32.697530 71.000000
32.717012 63.000000
32.736494 66.000000
32.755977 66.000000
32.775459 75.000000
32.794941 61.000000
32.814424 69.000000
32.833906 72.000000
32.853389 68.000000
32.872871 62.000000
32.892353 59.000000
32.911836 62.000000
32.931318 74.000000
32.950800 83.000000
32.970283 76.000000
32.989765 63.000000
33.009247 89.000000
33.028730 72.000000
33.048212 70.000000
33.067695 56.000000
33.087177 61.000000
33.106659 69.000000
33.126142 62.000000
33.145624 73.000000
33.165106 80.000000
33.184589 69.000000
33.204071 73.000000
33.223554 79.000000
33.243036 75.000000
33.262518 75.000000
33.282001 65.000000
33.301483 86.000000
33.320965 60.000000
33.340448 71.000000
33.359930 69.000000
33.379412 69.000000
33.398895 73.000000
33.418377 79.000000
33.437860 72.000000
33.457342 76.000000
33.476824 77.000000
33.496307 72.000000
33.515789 74.000000
33.535271 62.000000
33.554754 68.000000
33.574236 54.000000
33.593719 66.000000
33.613201 58.000000
33.632683 53.000000
33.652166 51.000000
33.671648 70.000000
33.691130 71.000000
33.710613 59.000000
33.730095 64.000000
33.749577 64.000000
33.769060 70.000000
33.788542 81.000000
33.808025 69.000000
33.827507 53.000000
33.846989 48.000000
33.866472 65.000000
33.885954 58.000000
33.905436 66.000000
33.924919 67.000000
33.944401 62.000000
33.963884 67.000000
33.983366 58.000000
34.002848 57.000000
34.022331 74.000000
34.041813 62.000000
34.061295 68.000000
34.080778 67.000000
34.100260 77.000000
34.119742 58.000000
34.139225 67.000000
34.158707 70.000000
34.178190 74.000000
34.197672 61.000000
34.217154 68.000000
34.236637 60.000000
34.256119 62.000000
34.275601 65.000000
34.295084 70.000000
34.314566 61.000000
34.334049 53.000000
34.353531 66.000000
34.373013 62.000000
34.392496 65.000000
34.411978 50.000000
34.431460 62.000000
34.450943 74.000000
34.470425 65.000000
34.489908 47.000000
34.509390 72.000000
34.528872 48.000000
34.548355 62.000000
34.567837 72.000000
34.587319 57.000000
34.606802 62.000000
34.626284 57.000000
34.645766 61.000000
34.665249 53.000000
34.684731 59.000000
34.704214 63.000000
34.723696 71.000000
34.743178 61.000000
34.762661 58.000000
34.782143 66.000000
34.801625 71.000000
34.821108 79.000000
34.840590 63.000000
34.860073 73.000000
34.879555 62.000000
34.899037 54.000000
34.918520 69.000000
34.938002 61.000000
34.957484 59.000000
34.976967 54.000000
34.996449 63.000000
35.015931 75.000000
35.035414 61.000000
35.054896 58.000000
35.074379 66.000000
35.093861 60.000000
35.113343 52.000000
35.132826 64.000000
35.152308 55.000000
35.171790 66.000000
35.191273 66.000000
35.210755 60.000000
35.230238 54.000000
35.249720 68.000000
35.269202 71.000000
35.288685 69.000000
35.308167 59.000000
35.327649 64.000000
35.347132 68.000000
35.366614 67.000000
35.386096 58.000000
35.405579 61.000000
35.425061 79.000000
35.444544 72.000000
35.464026 68.000000
35.483508 74.000000
35.502991 64.000000
35.522473 64.000000
35.541955 82.000000
35.561438 64.000000
35.580920 89.000000
35.600403 57.000000
35.619885 69.000000
35.639367 82.000000
35.658850 70.000000
35.678332 77.000000
35.697814 76.000000
35.717297 70.000000
35.736779 86.000000
35.756261 103.000000
35.775744 111.000000
35.795226 130.000000
35.814709 152.000000
35.834191 157.000000
35.853673 182.000000
35.873156 268.000000
35.892638 381.000000
35.912120 711.000000
35.931603 1000.000000
35.951085 1151.000000
35.970568 1037.000000
35.990050 862.000000
36.009532 770.000000
36.029015 734.000000
36.048497 734.000000
36.067979 560.000000
36.087462 379.000000
36.106944 257.000000
36.126426 197.000000
36.145909 159.000000
36.165391 134.000000
36.184874 114.000000
36.204356 106.000000
36.223838 101.000000
36.243321 88.000000
36.262803 72.000000
36.282285 83.000000
36.301768 68.000000
36.321250 72.000000
36.340733 85.000000
36.360215 78.000000
36.379697 66.000000
36.399180 61.000000
36.418662 76.000000
36.438144 63.000000
36.457627 59.000000
36.477109 52.000000
36.496592 58.000000
36.516074 50.000000
36.535556 75.000000
36.555039 65.000000
36.574521 55.000000
36.594003 54.000000
36.613486 54.000000
36.632968 59.000000
36.652450 47.000000
36.671933 58.000000
36.691415 68.000000
36.710898 63.000000
36.730380 62.000000
36.749862 53.000000
36.769345 56.000000
36.788827 65.000000
36.808309 58.000000
36.827792 72.000000
36.847274 51.000000
36.866757 72.000000
36.886239 47.000000
36.905721 48.000000
36.925204 68.000000
36.944686 61.000000
36.964168 51.000000
36.983651 47.000000
37.003133 54.000000
37.022615 67.000000
37.042098 55.000000
37.061580 56.000000
37.081063 57.000000
37.100545 58.000000
37.120027 55.000000
37.139510 68.000000
37.158992 56.000000
37.178474 55.000000
37.197957 48.000000
37.217439 62.000000
37.236922 58.000000
37.256404 63.000000
37.275886 62.000000
37.295369 63.000000
37.314851 45.000000
37.334333 71.000000
37.353816 65.000000
37.373298 47.000000
37.392780 51.000000
37.412263 57.000000
37.431745 55.000000
37.451228 62.000000
37.470710 52.000000
37.490192 58.000000
37.509675 57.000000
37.529157 60.000000
37.548639 52.000000
37.568122 65.000000
37.587604 61.000000
37.607087 58.000000
37.626569 72.000000
37.646051 68.000000
37.665534 53.000000
37.685016 70.000000
37.704498 46.000000
37.723981 51.000000
37.743463 74.000000
37.762945 45.000000
37.782428 60.000000
37.801910 56.000000
37.821393 54.000000
37.840875 55.000000
37.860357 56.000000
37.879840 59.000000
37.899322 48.000000
37.918804 73.000000
37.938287 65.000000
37.957769 73.000000
37.977252 56.000000
37.996734 69.000000
38.016216 72.000000
38.035699 62.000000
38.055181 59.000000
38.074663 46.000000
38.094146 69.000000
38.113628 64.000000
38.133111 55.000000
38.152593 58.000000
38.172075 75.000000
38.191558 73.000000
38.211040 64.000000
38.230522 55.000000
38.250005 58.000000
38.269487 71.000000
38.288969 59.000000
38.308452 66.000000
38.327934 67.000000
38.347417 60.000000
38.366899 64.000000
38.386381 62.000000
38.405864 66.000000
38.425346 69.000000
38.444828 61.000000
38.464311 68.000000
38.483793 43.000000
38.503276 76.000000
38.522758 71.000000
38.542240 75.000000
38.561723 74.000000
38.581205 56.000000
38.600687 57.000000
38.620170 49.000000
38.639652 57.000000
38.659134 59.000000
38.678617 61.000000
38.698099 55.000000
38.717582 84.000000
38.737064 62.000000
38.756546 59.000000
38.776029 59.000000
38.795511 63.000000
38.814993 79.000000
38.834476 77.000000
38.853958 61.000000
38.873441 63.000000
38.892923 69.000000
38.912405 57.000000
38.931888 75.000000
38.951370 67.000000
38.970852 69.000000
38.990335 79.000000
39.009817 78.000000
39.029299 83.000000
39.048782 88.000000
39.068264 75.000000
39.087747 84.000000
39.107229 77.000000
39.126711 107.000000
39.146194 91.000000
39.165676 115.000000
39.185158 120.000000
39.204641 173.000000
39.224123 175.000000
39.243606 185.000000
39.263088 251.000000
39.282570 285.000000
39.302053 404.000000
39.321535 639.000000
39.341017 957.000000
39.360500 1521.000000
39.379982 1947.000000
39.399464 2136.000000
39.418947 1890.000000
39.438429 1478.000000
39.457912 1198.000000
39.477394 1291.000000
39.496876 1270.000000
39.516359 1040.000000
39.535841 780.000000
39.555323 475.000000
39.574806 341.000000
39.594288 222.000000
39.613771 189.000000
39.633253 154.000000
39.652735 149.000000
39.672218 119.000000
39.691700 106.000000
39.711182 104.000000
39.730665 109.000000
39.750147 85.000000
39.769630 97.000000
39.789112 79.000000
39.808594 86.000000
39.828077 78.000000
39.847559 91.000000
39.867041 64.000000
39.886524 71.000000
39.906006 66.000000
39.925488 69.000000
39.944971 77.000000
39.964453 74.000000
39.983936 71.000000
40.003418 62.000000
40.022900 77.000000
40.042383 55.000000
40.061865 70.000000
40.081347 53.000000
40.100830 54.000000
40.120312 58.000000
40.139795 68.000000
40.159277 68.000000
40.178759 67.000000
40.198242 65.000000
40.217724 62.000000
40.237206 55.000000
40.256689 56.000000
40.276171 52.000000
40.295653 60.000000
40.315136 67.000000
40.334618 55.000000
40.354101 55.000000
40.373583 48.000000
40.393065 63.000000
40.412548 55.000000
40.432030 57.000000
40.451512 67.000000
40.470995 79.000000
40.490477 58.000000
40.509960 58.000000
40.529442 62.000000
40.548924 63.000000
40.568407 51.000000
40.587889 76.000000
40.607371 50.000000
40.626854 57.000000
40.646336 66.000000
40.665818 69.000000
40.685301 49.000000
40.704783 49.000000
40.724266 48.000000
40.743748 55.000000
40.763230 61.000000
40.782713 54.000000
40.802195 62.000000
40.821677 58.000000
40.841160 51.000000
40.860642 61.000000
40.880125 54.000000
40.899607 53.000000
40.919089 67.000000
40.938572 62.000000
40.958054 67.000000
40.977536 59.000000
40.997019 50.000000
41.016501 53.000000
41.035983 62.000000
41.055466 46.000000
41.074948 65.000000
41.094431 59.000000
41.113913 49.000000
41.133395 63.000000
41.152878 55.000000
41.172360 69.000000
41.191842 53.000000
41.211325 49.000000
41.230807 67.000000
41.250290 54.000000
41.269772 66.000000
41.289254 41.000000
41.308737 50.000000
41.328219 50.000000
41.347701 58.000000
41.367184 44.000000
41.386666 50.000000
41.406149 58.000000
41.425631 69.000000
41.445113 45.000000
41.464596 57.000000
41.484078 48.000000
41.503560 48.000000
41.523043 56.000000
41.542525 59.000000
41.562007 57.000000
41.581490 62.000000
41.600972 67.000000
41.620455 54.000000
41.639937 65.000000
41.659419 58.000000
41.678902 75.000000
41.698384 55.000000
41.717866 60.000000
41.737349 67.000000
41.756831 45.000000
41.776314 55.000000
41.795796 58.000000
41.815278 72.000000
41.834761 54.000000
41.854243 63.000000
41.873725 53.000000
41.893208 66.000000
41.912690 65.000000
41.932172 59.000000
41.951655 61.000000
41.971137 53.000000
41.990620 52.000000
42.010102 55.000000
42.029584 54.000000
42.049067 80.000000
42.068549 68.000000
42.088031 49.000000
42.107514 56.000000
42.126996 51.000000
42.146479 69.000000
42.165961 58.000000
42.185443 53.000000
42.204926 64.000000
42.224408 64.000000
42.243890 69.000000
42.263373 54.000000
42.282855 57.000000
42.302337 71.000000
42.321820 57.000000
42.341302 61.000000
42.360785 60.000000
42.380267 74.000000
42.399749 66.000000
42.419232 56.000000
42.438714 59.000000
42.458196 63.000000
42.477679 54.000000
42.497161 62.000000
42.516644 59.000000
42.536126 65.000000
42.555608 70.000000
42.575091 76.000000
42.594573 74.000000
42.614055 70.000000
42.633538 74.000000
42.653020 75.000000
42.672502 65.000000
42.691985 72.000000
42.711467 87.000000
42.730950 81.000000
42.750432 75.000000
42.769914 84.000000
42.789397 79.000000
42.808879 56.000000
42.828361 62.000000
42.847844 94.000000
42.867326 96.000000
42.886809 89.000000
42.906291 89.000000
42.925773 100.000000
42.945256 121.000000
42.964738 113.000000
42.984220 145.000000
43.003703 177.000000
43.023185 176.000000
43.042667 240.000000
43.062150 318.000000
43.081632 566.000000
43.101115 895.000000
43.120597 1295.000000
43.140079 1663.000000
43.159562 1662.000000
43.179044 1311.000000
43.198526 940.000000
43.218009 819.000000
43.237491 963.000000
43.256974 1033.000000
43.276456 853.000000
43.295938 626.000000
43.315421 405.000000
43.334903 259.000000
43.354385 169.000000
43.373868 171.000000
43.393350 137.000000
43.412833 139.000000
43.432315 119.000000
43.451797 105.000000
43.471280 94.000000
43.490762 88.000000
43.510244 83.000000
43.529727 78.000000
43.549209 94.000000
43.568691 78.000000
43.588174 78.000000
43.607656 77.000000
43.627139 77.000000
43.646621 71.000000
43.666103 64.000000
43.685586 63.000000
43.705068 54.000000
43.724550 65.000000
43.744033 65.000000
43.763515 59.000000
43.782998 72.000000
43.802480 54.000000
43.821962 65.000000
43.841445 58.000000
43.860927 65.000000
43.880409 50.000000
43.899892 62.000000
43.919374 50.000000
43.938856 70.000000
43.958339 67.000000
43.977821 55.000000
43.997304 58.000000
44.016786 63.000000
44.036268 63.000000
44.055751 60.000000
44.075233 60.000000
44.094715 58.000000
44.114198 56.000000
44.133680 72.000000
44.153163 52.000000
44.172645 49.000000
44.192127 59.000000
44.211610 61.000000
44.231092 57.000000
44.250574 60.000000
44.270057 53.000000
44.289539 62.000000
44.309021 63.000000
44.328504 60.000000
44.347986 54.000000
44.367469 44.000000
44.386951 62.000000
44.406433 59.000000
44.425916 50.000000
44.445398 52.000000
44.464880 69.000000
44.484363 77.000000
44.503845 45.000000
44.523328 42.000000
44.542810 61.000000
44.562292 45.000000
44.581775 52.000000
44.601257 63.000000
44.620739 47.000000
44.640222 64.000000
44.659704 52.000000
44.679186 65.000000
44.698669 61.000000
44.718151 59.000000
44.737634 56.000000
44.757116 45.000000
44.776598 60.000000
44.796081 55.000000
44.815563 61.000000
44.835045 65.000000
44.854528 61.000000
44.874010 48.000000
44.893493 58.000000
44.912975 66.000000
44.932457 59.000000
44.951940 46.000000
44.971422 54.000000
44.990904 54.000000
45.010387 61.000000
45.029869 62.000000
45.049352 57.000000
45.068834 68.000000
45.088316 55.000000
45.107799 62.000000
45.127281 57.000000
45.146763 49.000000
45.166246 64.000000
45.185728 51.000000
45.205210 48.000000
45.224693 66.000000
45.244175 56.000000
45.263658 53.000000
45.283140 64.000000
45.302622 57.000000
45.322105 57.000000
45.341587 43.000000
45.361069 49.000000
45.380552 56.000000
45.400034 47.000000
45.419517 55.000000
45.438999 62.000000
45.458481 56.000000
45.477964 61.000000
45.497446 58.000000
45.516928 50.000000
45.536411 63.000000
45.555893 57.000000
45.575375 51.000000
45.594858 57.000000
45.614340 54.000000
45.633823 58.000000
45.653305 59.000000
45.672787 58.000000
45.692270 60.000000
45.711752 56.000000
45.731234 56.000000
45.750717 74.000000
45.770199 49.000000
45.789682 72.000000
45.809164 61.000000
45.828646 58.000000
45.848129 58.000000
45.867611 61.000000
45.887093 63.000000
45.906576 70.000000
45.926058 51.000000
45.945540 58.000000
45.965023 49.000000
45.984505 63.000000
46.003988 80.000000
46.023470 58.000000
46.042952 63.000000
46.062435 59.000000
46.081917 70.000000
46.101399 62.000000
46.120882 70.000000
46.140364 57.000000
46.159847 45.000000
46.179329 70.000000
46.198811 71.000000
46.218294 79.000000
46.237776 65.000000
46.257258 56.000000
46.276741 57.000000
46.296223 73.000000
46.315705 88.000000
46.335188 70.000000
46.354670 71.000000
46.374153 69.000000
46.393635 54.000000
46.413117 57.000000
46.432600 63.000000
46.452082 65.000000
46.471564 77.000000
46.491047 63.000000
46.510529 61.000000
46.530012 63.000000
46.549494 75.000000
46.568976 65.000000
46.588459 63.000000
46.607941 64.000000
46.627423 73.000000
46.646906 68.000000
46.666388 81.000000
46.685871 72.000000
46.705353 71.000000
46.724835 76.000000
46.744318 68.000000
46.763800 92.000000
46.783282 101.000000
46.802765 79.000000
46.822247 88.000000
46.841729 93.000000
46.861212 105.000000
46.880694 100.000000
46.900177 95.000000
46.919659 115.000000
46.939141 122.000000
46.958624 112.000000
46.978106 146.000000
46.997588 174.000000
47.017071 220.000000
47.036553 245.000000
47.056036 333.000000
47.075518 426.000000
47.095000 446.000000
47.114483 484.000000
47.133965 460.000000
47.153447 351.000000
47.172930 359.000000
47.192412 337.000000
47.211894 371.000000
47.231377 385.000000
47.250859 342.000000
47.270342 321.000000
47.289824 319.000000
47.309306 287.000000
47.328789 300.000000
47.348271 351.000000
47.367753 392.000000
47.387236 496.000000
47.406718 723.000000
47.426201 1037.000000
47.445683 1426.000000
47.465165 1861.000000
47.484648 2310.000000
47.504130 2444.000000
47.523612 2240.000000
47.543095 1800.000000
47.562577 1570.000000
47.582059 1411.000000
47.601542 1514.000000
47.621024 1427.000000
47.640507 1271.000000
47.659989 1063.000000
47.679471 783.000000
47.698954 572.000000
47.718436 379.000000
47.737918 302.000000
47.757401 253.000000
47.776883 209.000000
47.796366 183.000000
47.815848 172.000000
47.835330 133.000000
47.854813 148.000000
47.874295 136.000000
47.893777 120.000000
47.913260 120.000000
47.932742 116.000000
47.952224 132.000000
47.971707 109.000000
47.991189 98.000000
48.010672 93.000000
48.030154 90.000000
48.049636 135.000000
48.069119 102.000000
48.088601 106.000000
48.108083 87.000000
48.127566 108.000000
48.147048 127.000000
48.166531 112.000000
48.186013 124.000000
48.205495 144.000000
48.224978 138.000000
48.244460 158.000000
48.263942 184.000000
48.283425 161.000000
48.302907 199.000000
48.322389 217.000000
48.341872 256.000000
48.361354 309.000000
48.380837 429.000000
48.400319 563.000000
48.419801 795.000000
48.439284 1140.000000
48.458766 1538.000000
48.478248 1868.000000
48.497731 2067.000000
48.517213 1849.000000
48.536696 1546.000000
48.556178 1257.000000
48.575660 1175.000000
48.595143 1153.000000
48.614625 1240.000000
48.634107 1159.000000
48.653590 963.000000
48.673072 738.000000
48.692555 531.000000
48.712037 360.000000
48.731519 265.000000
48.751002 249.000000
48.770484 216.000000
48.789966 194.000000
48.809449 125.000000
48.828931 129.000000
48.848413 119.000000
48.867896 119.000000
48.887378 112.000000
48.906861 102.000000
48.926343 105.000000
48.945825 98.000000
48.965308 91.000000
48.984790 86.000000
49.004272 76.000000
49.023755 79.000000
49.043237 68.000000
49.062720 84.000000
49.082202 75.000000
49.101684 66.000000
49.121167 64.000000
49.140649 74.000000
49.160131 66.000000
49.179614 71.000000
49.199096 64.000000
49.218578 67.000000
49.238061 68.000000
49.257543 64.000000
49.277026 56.000000
49.296508 60.000000
49.315990 80.000000
49.335473 55.000000
49.354955 61.000000
49.374437 73.000000
49.393920 71.000000
49.413402 67.000000
49.432885 58.000000
49.452367 65.000000
49.471849 59.000000
49.491332 63.000000
49.510814 61.000000
49.530296 83.000000
49.549779 68.000000
49.569261 68.000000
49.588743 51.000000
49.608226 61.000000
49.627708 58.000000
49.647191 44.000000
49.666673 60.000000
49.686155 57.000000
49.705638 58.000000
49.725120 58.000000
49.744602 58.000000
49.764085 54.000000
49.783567 65.000000
49.803050 59.000000
49.822532 56.000000
49.842014 47.000000
49.861497 54.000000
49.880979 39.000000
49.900461 61.000000
49.919944 37.000000
49.939426 56.000000
49.958908 51.000000
49.978391 72.000000
49.997873 56.000000
50.017356 58.000000
50.036838 56.000000
50.056320 63.000000
50.075803 50.000000
50.095285 54.000000
50.114767 48.000000
50.134250 41.000000
50.153732 56.000000
50.173215 61.000000
50.192697 48.000000
50.212179 60.000000
50.231662 55.000000
50.251144 61.000000
50.270626 44.000000
50.290109 56.000000
50.309591 48.000000
50.329074 36.000000
50.348556 58.000000
50.368038 50.000000
50.387521 45.000000
50.407003 50.000000
50.426485 58.000000
50.445968 51.000000
50.465450 52.000000
50.484932 52.000000
50.504415 64.000000
50.523897 54.000000
50.543380 52.000000
50.562862 48.000000
50.582344 63.000000
50.601827 49.000000
50.621309 54.000000
50.640791 60.000000
50.660274 49.000000
50.679756 53.000000
50.699239 66.000000
50.718721 50.000000
50.738203 54.000000
50.757686 56.000000
50.777168 49.000000
50.796650 55.000000
50.816133 50.000000
50.835615 52.000000
50.855097 56.000000
50.874580 52.000000
50.894062 59.000000
50.913545 56.000000
50.933027 55.000000
50.952509 58.000000
50.971992 60.000000
50.991474 63.000000
51.010956 51.000000
51.030439 62.000000
51.049921 58.000000
51.069404 55.000000
51.088886 47.000000
51.108368 77.000000
51.127851 50.000000
51.147333 57.000000
51.166815 57.000000
51.186298 53.000000
51.205780 72.000000
51.225262 58.000000
51.244745 53.000000
51.264227 45.000000
51.283710 53.000000
51.303192 64.000000
51.322674 62.000000
51.342157 57.000000
51.361639 44.000000
51.381121 35.000000
51.400604 45.000000
51.420086 59.000000
51.439569 45.000000
51.459051 60.000000
51.478533 48.000000
51.498016 48.000000
51.517498 54.000000
51.536980 44.000000
51.556463 54.000000
51.575945 42.000000
51.595427 50.000000
51.614910 57.000000
51.634392 43.000000
51.653875 44.000000
51.673357 56.000000
51.692839 46.000000
51.712322 54.000000
51.731804 63.000000
51.751286 45.000000
51.770769 65.000000
51.790251 57.000000
51.809734 45.000000
51.829216 46.000000
51.848698 49.000000
51.868181 47.000000
51.887663 52.000000
51.907145 44.000000
51.926628 41.000000
51.946110 39.000000
51.965593 47.000000
51.985075 48.000000
52.004557 47.000000
52.024040 53.000000
52.043522 47.000000
52.063004 56.000000
52.082487 53.000000
52.101969 55.000000
52.121451 58.000000
52.140934 37.000000
52.160416 41.000000
52.179899 52.000000
52.199381 38.000000
52.218863 47.000000
52.238346 41.000000
52.257828 50.000000
52.277310 55.000000
52.296793 52.000000
52.316275 35.000000
52.335758 44.000000
52.355240 49.000000
52.374722 43.000000
52.394205 47.000000
52.413687 43.000000
52.433169 61.000000
52.452652 56.000000
52.472134 51.000000
52.491616 49.000000
52.511099 41.000000
52.530581 45.000000
52.550064 45.000000
52.569546 48.000000
52.589028 49.000000
52.608511 57.000000
52.627993 49.000000
52.647475 42.000000
52.666958 55.000000
52.686440 43.000000
52.705923 45.000000
52.725405 36.000000
52.744887 55.000000
52.764370 49.000000
52.783852 47.000000
52.803334 55.000000
52.822817 55.000000
52.842299 29.000000
52.861781 46.000000
52.881264 54.000000
52.900746 42.000000
52.920229 45.000000
52.939711 46.000000
52.959193 54.000000
52.978676 41.000000
52.998158 61.000000
53.017640 50.000000
53.037123 39.000000
53.056605 57.000000
53.076088 54.000000
53.095570 61.000000
53.115052 47.000000
53.134535 43.000000
53.154017 40.000000
53.173499 36.000000
53.192982 43.000000
53.212464 42.000000
53.231946 40.000000
53.251429 43.000000
53.270911 30.000000
53.290394 51.000000
53.309876 42.000000
53.329358 44.000000
53.348841 49.000000
53.368323 42.000000
53.387805 50.000000
53.407288 41.000000
53.426770 44.000000
53.446253 48.000000
53.465735 53.000000
53.485217 52.000000
53.504700 44.000000
53.524182 48.000000
53.543664 37.000000
53.563147 46.000000
53.582629 48.000000
53.602112 40.000000
53.621594 41.000000
53.641076 53.000000
53.660559 60.000000
53.680041 59.000000
53.699523 45.000000
53.719006 46.000000
53.738488 49.000000
53.757970 53.000000
53.777453 49.000000
53.796935 45.000000
53.816418 45.000000
53.835900 37.000000
53.855382 51.000000
53.874865 43.000000
53.894347 42.000000
53.913829 39.000000
53.933312 47.000000
53.952794 44.000000
53.972277 44.000000
53.991759 49.000000
54.011241 53.000000
54.030724 36.000000
54.050206 40.000000
54.069688 41.000000
54.089171 47.000000
54.108653 37.000000
54.128135 45.000000
54.147618 43.000000
54.167100 37.000000
54.186583 37.000000
54.206065 45.000000
54.225547 39.000000
54.245030 35.000000
54.264512 44.000000
54.283994 46.000000
54.303477 44.000000
54.322959 35.000000
54.342442 52.000000
54.361924 44.000000
54.381406 43.000000
54.400889 42.000000
54.420371 37.000000
54.439853 46.000000
54.459336 45.000000
54.478818 49.000000
54.498300 50.000000
54.517783 42.000000
54.537265 38.000000
54.556748 50.000000
54.576230 49.000000
54.595712 51.000000
54.615195 49.000000
54.634677 37.000000
54.654159 59.000000
54.673642 41.000000
54.693124 43.000000
54.712607 50.000000
54.732089 39.000000
54.751571 47.000000
54.771054 50.000000
54.790536 38.000000
54.810018 46.000000
54.829501 49.000000
54.848983 49.000000
54.868465 46.000000
54.887948 46.000000
54.907430 51.000000
54.926913 40.000000
54.946395 47.000000
54.965877 59.000000
54.985360 35.000000
55.004842 50.000000
55.024324 64.000000
55.043807 50.000000
55.063289 45.000000
55.082772 36.000000
55.102254 45.000000
55.121736 44.000000
55.141219 53.000000
55.160701 58.000000
55.180183 46.000000
55.199666 45.000000
55.219148 41.000000
55.238630 35.000000
55.258113 52.000000
55.277595 36.000000
55.297078 24.000000
55.316560 37.000000
55.336042 47.000000
55.355525 43.000000
55.375007 45.000000
55.394489 46.000000
55.413972 36.000000
55.433454 42.000000
55.452937 49.000000
55.472419 43.000000
55.491901 41.000000
55.511384 63.000000
55.530866 35.000000
55.550348 45.000000
55.569831 44.000000
55.589313 44.000000
55.608796 51.000000
55.628278 49.000000
55.647760 50.000000
55.667243 43.000000
55.686725 44.000000
55.706207 41.000000
55.725690 45.000000
55.745172 55.000000
55.764654 46.000000
55.784137 46.000000
55.803619 40.000000
55.823102 54.000000
55.842584 43.000000
55.862066 50.000000
55.881549 46.000000
55.901031 49.000000
55.920513 45.000000
55.939996 54.000000
55.959478 51.000000
55.978961 58.000000
55.998443 45.000000
56.017925 42.000000
56.037408 43.000000
56.056890 49.000000
56.076372 49.000000
56.095855 38.000000
56.115337 53.000000
56.134819 46.000000
56.154302 48.000000
56.173784 42.000000
56.193267 56.000000
56.212749 61.000000
56.232231 51.000000
56.251714 41.000000
56.271196 66.000000
56.290678 74.000000
56.310161 51.000000
56.329643 62.000000
56.349126 59.000000
56.368608 69.000000
56.388090 72.000000
56.407573 70.000000
56.427055 86.000000
56.446537 100.000000
56.466020 113.000000
56.485502 137.000000
56.504984 184.000000
56.524467 229.000000
56.543949 309.000000
56.563432 337.000000
56.582914 270.000000
56.602396 262.000000
56.621879 195.000000
56.641361 158.000000
56.660843 184.000000
56.680326 178.000000
56.699808 207.000000
56.719291 187.000000
56.738773 177.000000
56.758255 153.000000
56.777738 107.000000
56.797220 95.000000
56.816702 90.000000
56.836185 71.000000
56.855667 72.000000
56.875149 58.000000
56.894632 68.000000
56.914114 70.000000
56.933597 53.000000
56.953079 69.000000
56.972561 50.000000
56.992044 62.000000
57.011526 67.000000
57.031008 44.000000
57.050491 48.000000
57.069973 70.000000
57.089456 59.000000
57.108938 68.000000
57.128420 84.000000
57.147903 58.000000
57.167385 67.000000
57.186867 81.000000
57.206350 106.000000
57.225832 125.000000
57.245315 147.000000
57.264797 137.000000
57.284279 179.000000
57.303762 196.000000
57.323244 278.000000
57.342726 381.000000
57.362209 461.000000
57.381691 561.000000
57.401173 524.000000
57.420656 505.000000
57.440138 463.000000
57.459621 353.000000
57.479103 315.000000
57.498585 290.000000
57.518068 336.000000
57.537550 380.000000
57.557032 286.000000
57.576515 280.000000
57.595997 204.000000
57.615480 180.000000
57.634962 149.000000
57.654444 120.000000
57.673927 114.000000
57.693409 122.000000
57.712891 103.000000
57.732374 77.000000
57.751856 80.000000
57.771338 76.000000
57.790821 74.000000
57.810303 77.000000
57.829786 56.000000
57.849268 67.000000
57.868750 71.000000
57.888233 51.000000
57.907715 61.000000
57.927197 50.000000
57.946680 59.000000
57.966162 65.000000
57.985645 68.000000
58.005127 96.000000
58.024609 110.000000
58.044092 127.000000
58.063574 132.000000
58.083056 152.000000
58.102539 132.000000
58.122021 105.000000
58.141503 84.000000
58.160986 84.000000
58.180468 95.000000
58.199951 106.000000
58.219433 98.000000
58.238915 88.000000
58.258398 71.000000
58.277880 75.000000
58.297362 83.000000
58.316845 64.000000
58.336327 59.000000
58.355810 56.000000
58.375292 48.000000
58.394774 52.000000
58.414257 45.000000
58.433739 57.000000
58.453221 61.000000
58.472704 50.000000
58.492186 52.000000
58.511668 51.000000
58.531151 44.000000
58.550633 44.000000
58.570116 50.000000
58.589598 35.000000
58.609080 55.000000
58.628563 42.000000
58.648045 41.000000
58.667527 37.000000
58.687010 32.000000
58.706492 54.000000
58.725975 51.000000
58.745457 53.000000
58.764939 46.000000
58.784422 44.000000
58.803904 41.000000
58.823386 44.000000
58.842869 42.000000
58.862351 40.000000
58.881834 51.000000
58.901316 38.000000
58.920798 39.000000
58.940281 48.000000
58.959763 47.000000
58.979245 36.000000
58.998728 39.000000
59.018210 37.000000
59.037692 39.000000
59.057175 42.000000
59.076657 40.000000
59.096140 51.000000
59.115622 52.000000
59.135104 46.000000
59.154587 49.000000
59.174069 48.000000
59.193551 41.000000
59.213034 39.000000
59.232516 53.000000
59.251999 41.000000
59.271481 57.000000
59.290963 46.000000
59.310446 50.000000
59.329928 40.000000
59.349410 43.000000
59.368893 45.000000
59.388375 34.000000
59.407857 41.000000
59.427340 43.000000
59.446822 47.000000
59.466305 50.000000
59.485787 44.000000
59.505269 40.000000
59.524752 62.000000
59.544234 27.000000
59.563716 35.000000
59.583199 36.000000
59.602681 41.000000
59.622164 35.000000
59.641646 59.000000
59.661128 45.000000
59.680611 46.000000
59.700093 47.000000
59.719575 49.000000
59.739058 41.000000
59.758540 38.000000
59.778022 54.000000
59.797505 40.000000
59.816987 38.000000
59.836470 44.000000
59.855952 38.000000
59.875434 43.000000
59.894917 51.000000
59.914399 58.000000
59.933881 43.000000
59.953364 86.000000
59.972846 75.000000
59.992329 75.000000
60.011811 45.000000
60.031293 51.000000
60.050776 47.000000
60.070258 49.000000
60.089740 39.000000
60.109223 53.000000
60.128705 61.000000
60.148187 76.000000
60.167670 48.000000
60.187152 50.000000
60.206635 51.000000
60.226117 50.000000
60.245599 56.000000
60.265082 55.000000
60.284564 52.000000
60.304046 55.000000
60.323529 59.000000
60.343011 61.000000
60.362494 56.000000
60.381976 51.000000
60.401458 62.000000
60.420941 70.000000
60.440423 58.000000
60.459905 71.000000
60.479388 65.000000
60.498870 78.000000
60.518352 73.000000
60.537835 119.000000
60.557317 140.000000
60.576800 189.000000
60.596282 237.000000
60.615764 310.000000
60.635247 426.000000
60.654729 483.000000
60.674211 453.000000
60.693694 402.000000
60.713176 339.000000
60.732659 256.000000
60.752141 237.000000
60.771623 228.000000
60.791106 250.000000
60.810588 303.000000
60.830070 297.000000
60.849553 271.000000
60.869035 237.000000
60.888518 217.000000
60.908000 207.000000
60.927482 231.000000
60.946965 275.000000
60.966447 328.000000
60.985929 363.000000
61.005412 340.000000
61.024894 282.000000
61.044376 227.000000
61.063859 176.000000
61.083341 180.000000
61.102824 193.000000
61.122306 216.000000
61.141788 177.000000
61.161271 213.000000
61.180753 215.000000
61.200235 187.000000
61.219718 156.000000
61.239200 132.000000
61.258683 151.000000
61.278165 161.000000
61.297647 220.000000
61.317130 243.000000
61.336612 314.000000
61.356094 298.000000
61.375577 293.000000
61.395059 281.000000
61.414541 221.000000
61.434024 189.000000
61.453506 158.000000
61.472989 203.000000
61.492471 180.000000
61.511953 186.000000
61.531436 181.000000
61.550918 171.000000
61.570400 168.000000
61.589883 133.000000
61.609365 126.000000
61.628848 80.000000
61.648330 73.000000
61.667812 86.000000
61.687295 67.000000
61.706777 79.000000
61.726259 55.000000
61.745742 47.000000
61.765224 57.000000
61.784706 46.000000
61.804189 57.000000
61.823671 37.000000
61.843154 42.000000
61.862636 46.000000
61.882118 53.000000
61.901601 33.000000
61.921083 42.000000
61.940565 38.000000
61.960048 39.000000
61.979530 48.000000
61.999013 40.000000
62.018495 42.000000
62.037977 41.000000
62.057460 46.000000
62.076942 45.000000
62.096424 37.000000
62.115907 47.000000
62.135389 52.000000
62.154871 43.000000
62.174354 39.000000
62.193836 41.000000
62.213319 36.000000
62.232801 36.000000
62.252283 28.000000
62.271766 49.000000
62.291248 46.000000
62.310730 38.000000
62.330213 26.000000
62.349695 41.000000
62.369178 58.000000
62.388660 52.000000
62.408142 40.000000
62.427625 45.000000
62.447107 44.000000
62.466589 35.000000
62.486072 43.000000
62.505554 53.000000
62.525037 46.000000
62.544519 43.000000
62.564001 47.000000
62.583484 36.000000
62.602966 43.000000
62.622448 40.000000
62.641931 48.000000
62.661413 53.000000
62.680895 64.000000
62.700378 50.000000
62.719860 60.000000
62.739343 41.000000
62.758825 57.000000
62.778307 48.000000
62.797790 52.000000
62.817272 59.000000
62.836754 43.000000
62.856237 51.000000
62.875719 71.000000
62.895202 77.000000
62.914684 76.000000
62.934166 94.000000
62.953649 86.000000
62.973131 138.000000
62.992613 127.000000
63.012096 172.000000
63.031578 169.000000
63.051060 194.000000
63.070543 171.000000
63.090025 175.000000
63.109508 130.000000
63.128990 117.000000
63.148472 103.000000
63.167955 112.000000
63.187437 97.000000
63.206919 112.000000
63.226402 123.000000
63.245884 113.000000
63.265367 122.000000
63.284849 64.000000
63.304331 64.000000
63.323814 58.000000
63.343296 50.000000
63.362778 44.000000
63.382261 50.000000
63.401743 62.000000
63.421225 52.000000
63.440708 62.000000
63.460190 56.000000
63.479673 41.000000
63.499155 41.000000
63.518637 49.000000
63.538120 39.000000
63.557602 49.000000
63.577084 45.000000
63.596567 50.000000
63.616049 42.000000
63.635532 60.000000
63.655014 41.000000
63.674496 52.000000
63.693979 38.000000
63.713461 42.000000
63.732943 36.000000
63.752426 50.000000
63.771908 38.000000
63.791390 37.000000
63.810873 41.000000
63.830355 39.000000
63.849838 37.000000
63.869320 40.000000
63.888802 52.000000
63.908285 59.000000
63.927767 41.000000
63.947249 38.000000
63.966732 59.000000
63.986214 37.000000
64.005697 45.000000
64.025179 43.000000
64.044661 57.000000
64.064144 39.000000
64.083626 57.000000
64.103108 42.000000
64.122591 55.000000
64.142073 49.000000
64.161556 48.000000
64.181038 33.000000
64.200520 43.000000
64.220003 51.000000
64.239485 58.000000
64.258967 46.000000
64.278450 45.000000
64.297932 51.000000
64.317414 71.000000
64.336897 70.000000
64.356379 58.000000
64.375862 56.000000
64.395344 70.000000
64.414826 58.000000
64.434309 73.000000
64.453791 80.000000
64.473273 84.000000
64.492756 95.000000
64.512238 103.000000
64.531721 97.000000
64.551203 145.000000
64.570685 223.000000
64.590168 235.000000
64.609650 358.000000
64.629132 399.000000
64.648615 460.000000
64.668097 436.000000
64.687579 417.000000
64.707062 345.000000
64.726544 290.000000
64.746027 258.000000
64.765509 247.000000
64.784991 244.000000
64.804474 304.000000
64.823956 295.000000
64.843438 288.000000
64.862921 221.000000
64.882403 212.000000
64.901886 195.000000
64.921368 148.000000
64.940850 103.000000
64.960333 108.000000
64.979815 81.000000
64.999297 74.000000
65.018780 73.000000
65.038262 71.000000
65.057744 66.000000
65.077227 68.000000
65.096709 67.000000
65.116192 57.000000
65.135674 61.000000
65.155156 55.000000
65.174639 55.000000
65.194121 63.000000
65.213603 44.000000
65.233086 37.000000
65.252568 56.000000
65.272051 47.000000
65.291533 50.000000
65.311015 53.000000
65.330498 61.000000
65.349980 59.000000
65.369462 53.000000
65.388945 93.000000
65.408427 75.000000
65.427909 77.000000
65.447392 101.000000
65.466874 102.000000
65.486357 124.000000
65.505839 141.000000
65.525321 186.000000
65.544804 218.000000
65.564286 283.000000
65.583768 308.000000
65.603251 311.000000
65.622733 345.000000
65.642216 315.000000
65.661698 277.000000
65.681180 258.000000
65.700663 188.000000
65.720145 172.000000
65.739627 201.000000
65.759110 219.000000
65.778592 220.000000
65.798075 219.000000
65.817557 180.000000
65.837039 188.000000
65.856522 166.000000
65.876004 123.000000
65.895486 94.000000
65.914969 67.000000
65.934451 77.000000
65.953933 55.000000
65.973416 57.000000
65.992898 57.000000
66.012381 71.000000
66.031863 59.000000
66.051345 66.000000
66.070828 49.000000
66.090310 48.000000
66.109792 47.000000
66.129275 27.000000
66.148757 48.000000
66.168240 41.000000
66.187722 44.000000
66.207204 44.000000
66.226687 47.000000
66.246169 36.000000
66.265651 40.000000
66.285134 42.000000
66.304616 40.000000
66.324098 45.000000
66.343581 39.000000
66.363063 45.000000
66.382546 41.000000
66.402028 48.000000
66.421510 33.000000
66.440993 50.000000
66.460475 37.000000
66.479957 37.000000
66.499440 38.000000
66.518922 40.000000
66.538405 52.000000
66.557887 41.000000
66.577369 34.000000
66.596852 37.000000
66.616334 44.000000
66.635816 43.000000
66.655299 36.000000
66.674781 38.000000
66.694263 42.000000
66.713746 42.000000
66.733228 31.000000
66.752711 30.000000
66.772193 37.000000
66.791675 34.000000
66.811158 38.000000
66.830640 43.000000
66.850122 46.000000
66.869605 26.000000
66.889087 43.000000
66.908570 46.000000
66.928052 40.000000
66.947534 48.000000
66.967017 46.000000
66.986499 44.000000
67.005981 42.000000
67.025464 44.000000
67.044946 41.000000
67.064428 37.000000
67.083911 40.000000
67.103393 42.000000
67.122876 38.000000
67.142358 38.000000
67.161840 33.000000
67.181323 38.000000
67.200805 33.000000
67.220287 38.000000
67.239770 30.000000
67.259252 51.000000
67.278735 41.000000
67.298217 42.000000
67.317699 31.000000
67.337182 34.000000
67.356664 42.000000
67.376146 32.000000
67.395629 26.000000
67.415111 44.000000
67.434593 29.000000
67.454076 34.000000
67.473558 36.000000
67.493041 40.000000
67.512523 42.000000
67.532005 36.000000
67.551488 43.000000
67.570970 30.000000
67.590452 33.000000
67.609935 54.000000
67.629417 40.000000
67.648900 38.000000
67.668382 48.000000
67.687864 43.000000
67.707347 49.000000
67.726829 49.000000
67.746311 38.000000
67.765794 29.000000
67.785276 45.000000
67.804759 43.000000
67.824241 39.000000
67.843723 36.000000
67.863206 48.000000
67.882688 36.000000
67.902170 34.000000
67.921653 35.000000
67.941135 32.000000
67.960617 34.000000
67.980100 29.000000
67.999582 34.000000
68.019065 37.000000
68.038547 34.000000
68.058029 34.000000
68.077512 39.000000
68.096994 38.000000
68.116476 42.000000
68.135959 36.000000
68.155441 41.000000
68.174924 35.000000
68.194406 46.000000
68.213888 48.000000
68.233371 36.000000
68.252853 43.000000
68.272335 40.000000
68.291818 26.000000
68.311300 35.000000
68.330782 35.000000
68.350265 28.000000
68.369747 21.000000
68.389230 35.000000
68.408712 43.000000
68.428194 34.000000
68.447677 40.000000
68.467159 32.000000
68.486641 32.000000
68.506124 46.000000
68.525606 42.000000
68.545089 46.000000
68.564571 31.000000
68.584053 44.000000
68.603536 32.000000
68.623018 43.000000
68.642500 44.000000
68.661983 32.000000
68.681465 43.000000
68.700947 35.000000
68.720430 54.000000
68.739912 41.000000
68.759395 36.000000
68.778877 40.000000
68.798359 44.000000
68.817842 46.000000
68.837324 44.000000
68.856806 49.000000
68.876289 43.000000
68.895771 34.000000
68.915254 41.000000
68.934736 53.000000
68.954218 39.000000
68.973701 51.000000
68.993183 56.000000
69.012665 46.000000
69.032148 62.000000
69.051630 43.000000
69.071112 74.000000
69.090595 81.000000
69.110077 96.000000
69.129560 137.000000
69.149042 174.000000
69.168524 186.000000
69.188007 182.000000
69.207489 221.000000
69.226971 158.000000
69.246454 117.000000
69.265936 107.000000
69.285419 98.000000
69.304901 107.000000
69.324383 77.000000
69.343866 89.000000
69.363348 129.000000
69.382830 140.000000
69.402313 115.000000
69.421795 93.000000
69.441278 85.000000
69.460760 86.000000
69.480242 67.000000
69.499725 47.000000
69.519207 64.000000
69.538689 42.000000
69.558172 36.000000
69.577654 40.000000
69.597136 46.000000
69.616619 41.000000
69.636101 45.000000
69.655584 34.000000
69.675066 51.000000
69.694548 49.000000
69.714031 44.000000
69.733513 39.000000
69.752995 43.000000
69.772478 50.000000
69.791960 53.000000
69.811443 44.000000
69.830925 43.000000
69.850407 41.000000
69.869890 40.000000
69.889372 41.000000
69.908854 58.000000
69.928337 53.000000
69.947819 47.000000
69.967301 57.000000
69.986784 48.000000
70.006266 70.000000
70.025749 45.000000
