4.000000 2647.000000
4.019500 2472.000000
4.039000 2519.000000
4.058400 2459.000000
4.077900 2423.000000
4.097400 2338.000000
4.116900 2341.000000
4.136400 2347.000000
4.155900 2275.000000
4.175300 2233.000000
4.194800 2260.000000
4.214300 2205.000000
4.233800 2155.000000
4.253300 2186.000000
4.272800 2058.000000
4.292200 2015.000000
4.311700 2076.000000
4.331200 1983.000000
4.350700 2065.000000
4.370200 1952.000000
4.389600 1943.000000
4.409100 1930.000000
4.428600 1909.000000
4.448100 1882.000000
4.467600 1865.000000
4.487100 1899.000000
4.506500 1798.000000
4.526000 1765.000000
4.545500 1805.000000
4.565000 1754.000000
4.584500 1796.000000
4.604000 1791.000000
4.623400 1721.000000
4.642900 1690.000000
4.662400 1756.000000
4.681900 1746.000000
4.701400 1635.000000
4.720800 1689.000000
4.740300 1653.000000
4.759800 1550.000000
4.779300 1609.000000
4.798800 1591.000000
4.818300 1549.000000
4.837700 1485.000000
4.857200 1540.000000
4.876700 1502.000000
4.896200 1488.000000
4.915700 1554.000000
4.935200 1539.000000
4.954600 1506.000000
4.974100 1434.000000
4.993600 1513.000000
5.013100 1424.000000
5.032600 1366.000000
5.052000 1446.000000
5.071500 1394.000000
5.091000 1467.000000
5.110500 1397.000000
5.130000 1425.000000
5.149500 1444.000000
5.168900 1407.000000
5.188400 1436.000000
5.207900 1415.000000
5.227400 1335.000000
5.246900 1410.000000
5.266400 1311.000000
5.285800 1346.000000
5.305300 1316.000000
5.324800 1265.000000
5.344300 1336.000000
5.363800 1342.000000
5.383200 1295.000000
5.402700 1266.000000
5.422200 1275.000000
5.441700 1323.000000
5.461200 1323.000000
5.480700 1301.000000
5.500100 1327.000000
5.519600 1253.000000
5.539100 1260.000000
5.558600 1300.000000
5.578100 1223.000000
5.597600 1336.000000
5.617000 1280.000000
5.636500 1297.000000
5.656000 1235.000000
5.675500 1311.000000
5.695000 1307.000000
5.714400 1224.000000
5.733900 1253.000000
5.753400 1201.000000
5.772900 1254.000000
5.792400 1158.000000
5.811900 1250.000000
5.831300 1168.000000
5.850800 1218.000000
5.870300 1234.000000
5.889800 1195.000000
5.909300 1259.000000
5.928800 1180.000000
5.948200 1127.000000
5.967700 1117.000000
5.987200 1175.000000
6.006700 1193.000000
6.026200 1140.000000
6.045600 1152.000000
6.065100 1152.000000
6.084600 1194.000000
6.104100 1183.000000
6.123600 1115.000000
6.143100 1090.000000
6.162500 1107.000000
6.182000 1136.000000
6.201500 1213.000000
6.221000 1125.000000
6.240500 1127.000000
6.260000 1047.000000
6.279400 1049.000000
6.298900 1074.000000
6.318400 1083.000000
6.337900 1033.000000
6.357400 1053.000000
6.376800 1035.000000
6.396300 1058.000000
6.415800 1090.000000
6.435300 988.000000
6.454800 994.000000
6.474300 1053.000000
6.493700 1053.000000
6.513200 1029.000000
6.532700 1021.000000
6.552200 1029.000000
6.571700 1043.000000
6.591200 1013.000000
6.610600 980.000000
6.630100 997.000000
6.649600 980.000000
6.669100 1013.000000
6.688600 990.000000
6.708000 882.000000
6.727500 911.000000
6.747000 1019.000000
6.766500 1011.000000
6.786000 988.000000
6.805500 991.000000
6.824900 949.000000
6.844400 966.000000
6.863900 958.000000
6.883400 951.000000
6.902900 989.000000
6.922400 895.000000
6.941800 937.000000
6.961300 954.000000
6.980800 943.000000
7.000300 969.000000
7.019800 890.000000
7.039300 928.000000
7.058700 985.000000
7.078200 923.000000
7.097700 877.000000
7.117200 923.000000
7.136700 909.000000
7.156100 934.000000
7.175600 899.000000
7.195100 890.000000
7.214600 917.000000
7.234100 910.000000
7.253600 904.000000
7.273000 852.000000
7.292500 888.000000
7.312000 882.000000
7.331500 870.000000
7.351000 848.000000
7.370500 917.000000
7.389900 855.000000
7.409400 905.000000
7.428900 881.000000
7.448400 896.000000
7.467900 851.000000
7.487300 872.000000
7.506800 872.000000
7.526300 877.000000
7.545800 848.000000
7.565300 858.000000
7.584800 855.000000
7.604200 865.000000
7.623700 835.000000
7.643200 832.000000
7.662700 856.000000
7.682200 910.000000
7.701700 850.000000
7.721100 880.000000
7.740600 819.000000
7.760100 843.000000
7.779600 826.000000
7.799100 846.000000
7.818500 835.000000
7.838000 823.000000
7.857500 885.000000
7.877000 803.000000
7.896500 814.000000
7.916000 780.000000
7.935400 857.000000
7.954900 842.000000
7.974400 807.000000
7.993900 860.000000
8.013400 825.000000
8.032900 808.000000
8.052300 867.000000
8.071800 891.000000
8.091300 813.000000
8.110800 846.000000
8.130300 848.000000
8.149700 821.000000
8.169200 802.000000
8.188700 820.000000
8.208200 870.000000
8.227700 759.000000
8.247200 771.000000
8.266600 761.000000
8.286100 815.000000
8.305600 781.000000
8.325100 801.000000
8.344600 801.000000
8.364100 813.000000
8.383500 809.000000
8.403000 818.000000
8.422500 829.000000
8.442000 800.000000
8.461500 816.000000
8.480900 783.000000
8.500400 793.000000
8.519900 804.000000
8.539400 739.000000
8.558900 772.000000
8.578400 787.000000
8.597800 808.000000
8.617300 741.000000
8.636800 768.000000
8.656300 766.000000
8.675800 745.000000
8.695300 793.000000
8.714700 744.000000
8.734200 746.000000
8.753700 754.000000
8.773200 809.000000
8.792700 768.000000
8.812100 718.000000
8.831600 754.000000
8.851100 837.000000
8.870600 841.000000
8.890100 753.000000
8.909600 767.000000
8.929000 745.000000
8.948500 813.000000
8.968000 769.000000
8.987500 771.000000
9.007000 784.000000
9.026500 718.000000
9.045900 740.000000
9.065400 738.000000
9.084900 728.000000
9.104400 782.000000
9.123900 722.000000
9.143300 715.000000
9.162800 786.000000
9.182300 750.000000
9.201800 810.000000
9.221300 741.000000
9.240800 715.000000
9.260200 744.000000
9.279700 718.000000
9.299200 791.000000
9.318700 755.000000
9.338200 718.000000
9.357700 721.000000
9.377100 730.000000
9.396600 741.000000
9.416100 722.000000
9.435600 740.000000
9.455100 759.000000
9.474500 733.000000
9.494000 668.000000
9.513500 755.000000
9.533000 736.000000
9.552500 702.000000
9.572000 759.000000
9.591400 782.000000
9.610900 754.000000
9.630400 752.000000
9.649900 739.000000
9.669400 726.000000
9.688900 733.000000
9.708300 752.000000
9.727800 705.000000
9.747300 693.000000
9.766800 705.000000
9.786300 716.000000
9.805700 718.000000
9.825200 697.000000
9.844700 751.000000
9.864200 697.000000
9.883700 750.000000
9.903200 664.000000
9.922600 715.000000
9.942100 684.000000
9.961600 745.000000
9.981100 738.000000
10.000600 685.000000
10.020100 716.000000
10.039500 715.000000
10.059000 708.000000
10.078500 697.000000
10.098000 665.000000
10.117500 691.000000
10.136900 650.000000
10.156400 685.000000
10.175900 668.000000
10.195400 698.000000
10.214900 716.000000
10.234400 691.000000
10.253800 723.000000
10.273300 664.000000
10.292800 713.000000
10.312300 689.000000
10.331800 706.000000
10.351300 705.000000
10.370700 654.000000
10.390200 711.000000
10.409700 706.000000
10.429200 682.000000
10.448700 695.000000
10.468100 683.000000
10.487600 657.000000
10.507100 679.000000
10.526600 712.000000
10.546100 628.000000
10.565600 646.000000
10.585000 712.000000
10.604500 645.000000
10.624000 700.000000
10.643500 726.000000
10.663000 655.000000
10.682500 693.000000
10.701900 634.000000
10.721400 699.000000
10.740900 713.000000
10.760400 673.000000
10.779900 706.000000
10.799300 634.000000
10.818800 678.000000
10.838300 715.000000
10.857800 685.000000
10.877300 676.000000
10.896800 642.000000
10.916200 666.000000
10.935700 642.000000
10.955200 647.000000
10.974700 692.000000
10.994200 664.000000
11.013700 635.000000
11.033100 679.000000
11.052600 626.000000
11.072100 605.000000
11.091600 657.000000
11.111100 640.000000
11.130500 641.000000
11.150000 658.000000
11.169500 636.000000
11.189000 631.000000
11.208500 695.000000
11.228000 646.000000
11.247400 622.000000
11.266900 639.000000
11.286400 655.000000
11.305900 595.000000
11.325400 599.000000
11.344900 610.000000
11.364300 623.000000
11.383800 667.000000
11.403300 624.000000
11.422800 672.000000
11.442300 652.000000
11.461700 636.000000
11.481200 615.000000
11.500700 654.000000
11.520200 629.000000
11.539700 627.000000
11.559200 618.000000
11.578600 650.000000
11.598100 592.000000
11.617600 629.000000
11.637100 661.000000
11.656600 617.000000
11.676100 652.000000
11.695500 615.000000
11.715000 591.000000
11.734500 672.000000
11.754000 608.000000
11.773500 614.000000
11.792900 623.000000
11.812400 614.000000
11.831900 657.000000
11.851400 569.000000
11.870900 560.000000
11.890400 628.000000
11.909800 609.000000
11.929300 609.000000
11.948800 631.000000
11.968300 617.000000
11.987800 588.000000
12.007300 599.000000
12.026700 604.000000
12.046200 625.000000
12.065700 597.000000
12.085200 600.000000
12.104700 601.000000
12.124100 603.000000
12.143600 617.000000
12.163100 571.000000
12.182600 594.000000
12.202100 582.000000
12.221600 625.000000
12.241000 581.000000
12.260500 579.000000
12.280000 576.000000
12.299500 598.000000
12.319000 587.000000
12.338500 584.000000
12.357900 587.000000
12.377400 588.000000
12.396900 554.000000
12.416400 619.000000
12.435900 596.000000
12.455300 557.000000
12.474800 572.000000
12.494300 548.000000
12.513800 597.000000
12.533300 594.000000
12.552800 561.000000
12.572200 580.000000
12.591700 598.000000
12.611200 596.000000
12.630700 576.000000
12.650200 549.000000
12.669700 567.000000
12.689100 604.000000
12.708600 569.000000
12.728100 582.000000
12.747600 560.000000
12.767100 542.000000
12.786500 596.000000
12.806000 587.000000
12.825500 558.000000
12.845000 591.000000
12.864500 538.000000
12.884000 565.000000
12.903400 536.000000
12.922900 585.000000
12.942400 601.000000
12.961900 580.000000
12.981400 536.000000
13.000900 533.000000
13.020300 574.000000
13.039800 574.000000
13.059300 527.000000
13.078800 553.000000
13.098300 583.000000
13.117700 554.000000
13.137200 517.000000
13.156700 539.000000
13.176200 559.000000
13.195700 570.000000
13.215200 560.000000
13.234600 563.000000
13.254100 569.000000
13.273600 542.000000
13.293100 551.000000
13.312600 546.000000
13.332100 521.000000
13.351500 541.000000
13.371000 561.000000
13.390500 539.000000
13.410000 554.000000
13.429500 529.000000
13.448900 565.000000
13.468400 566.000000
13.487900 540.000000
13.507400 521.000000
13.526900 570.000000
13.546400 522.000000
13.565800 522.000000
13.585300 519.000000
13.604800 516.000000
13.624300 522.000000
13.643800 533.000000
13.663300 557.000000
13.682700 504.000000
13.702200 528.000000
13.721700 527.000000
13.741200 508.000000
13.760700 525.000000
13.780100 487.000000
13.799600 529.000000
13.819100 566.000000
13.838600 545.000000
13.858100 513.000000
13.877600 536.000000
13.897000 480.000000
13.916500 517.000000
13.936000 570.000000
13.955500 533.000000
13.975000 534.000000
13.994500 512.000000
14.013900 482.000000
14.033400 527.000000
14.052900 503.000000
14.072400 516.000000
14.091900 512.000000
14.111300 538.000000
14.130800 503.000000
14.150300 497.000000
14.169800 517.000000
14.189300 524.000000
14.208800 529.000000
14.228200 491.000000
14.247700 506.000000
14.267200 521.000000
14.286700 492.000000
14.306200 482.000000
14.325700 494.000000
14.345100 519.000000
14.364600 508.000000
14.384100 499.000000
14.403600 483.000000
14.423100 511.000000
14.442600 531.000000
14.462000 476.000000
14.481500 463.000000
14.501000 504.000000
14.520500 518.000000
14.540000 514.000000
14.559400 487.000000
14.578900 509.000000
14.598400 474.000000
14.617900 517.000000
14.637400 474.000000
14.656900 524.000000
14.676300 483.000000
14.695800 476.000000
14.715300 478.000000
14.734800 482.000000
14.754300 479.000000
14.773700 506.000000
14.793200 456.000000
14.812700 471.000000
14.832200 476.000000
14.851700 450.000000
14.871200 510.000000
14.890600 522.000000
14.910100 494.000000
14.929600 522.000000
14.949100 479.000000
14.968600 417.000000
14.988100 405.000000
15.007500 483.000000
15.027000 444.000000
15.046500 454.000000
15.066000 480.000000
15.085500 450.000000
15.104900 408.000000
15.124400 466.000000
15.143900 475.000000
15.163400 478.000000
15.182900 453.000000
15.202400 473.000000
15.221800 455.000000
15.241300 430.000000
15.260800 421.000000
15.280300 468.000000
15.299800 439.000000
15.319300 451.000000
15.338700 475.000000
15.358200 488.000000
15.377700 461.000000
15.397200 449.000000
15.416700 466.000000
15.436200 458.000000
15.455600 480.000000
15.475100 426.000000
15.494600 425.000000
15.514100 485.000000
15.533600 474.000000
15.553000 431.000000
15.572500 427.000000
15.592000 475.000000
15.611500 440.000000
15.631000 446.000000
15.650500 445.000000
15.669900 526.000000
15.689400 426.000000
15.708900 414.000000
15.728400 438.000000
15.747900 493.000000
15.767400 420.000000
15.786800 413.000000
15.806300 445.000000
15.825800 419.000000
15.845300 445.000000
15.864800 457.000000
15.884200 413.000000
15.903700 448.000000
15.923200 411.000000
15.942700 458.000000
15.962200 426.000000
15.981700 444.000000
16.001100 411.000000
16.020600 424.000000
16.040100 429.000000
16.059600 421.000000
16.079100 449.000000
16.098600 471.000000
16.118000 454.000000
16.137500 437.000000
16.157000 451.000000
16.176500 383.000000
16.196000 408.000000
16.215400 421.000000
16.234900 427.000000
16.254400 447.000000
16.273900 413.000000
16.293400 436.000000
16.312900 432.000000
16.332300 455.000000
16.351800 392.000000
16.371300 424.000000
16.390800 427.000000
16.410300 418.000000
16.429800 435.000000
16.449200 441.000000
16.468700 428.000000
16.488200 402.000000
16.507700 411.000000
16.527200 388.000000
16.546600 412.000000
16.566100 416.000000
16.585600 430.000000
16.605100 437.000000
16.624600 388.000000
16.644100 444.000000
16.663500 410.000000
16.683000 395.000000
16.702500 448.000000
16.722000 399.000000
16.741500 445.000000
16.761000 420.000000
16.780400 412.000000
16.799900 383.000000
16.819400 418.000000
16.838900 414.000000
16.858400 425.000000
16.877800 415.000000
16.897300 410.000000
16.916800 423.000000
16.936300 406.000000
16.955800 402.000000
16.975300 440.000000
16.994700 411.000000
17.014200 436.000000
17.033700 403.000000
17.053200 380.000000
17.072700 427.000000
17.092200 411.000000
17.111600 371.000000
17.131100 412.000000
17.150600 415.000000
17.170100 380.000000
17.189600 386.000000
17.209000 410.000000
17.228500 416.000000
17.248000 410.000000
17.267500 392.000000
17.287000 412.000000
17.306500 408.000000
17.325900 397.000000
17.345400 439.000000
17.364900 399.000000
17.384400 425.000000
17.403900 393.000000
17.423400 408.000000
17.442800 354.000000
17.462300 385.000000
17.481800 434.000000
17.501300 396.000000
17.520800 409.000000
17.540200 393.000000
17.559700 387.000000
17.579200 416.000000
17.598700 384.000000
17.618200 399.000000
17.637700 421.000000
17.657100 407.000000
17.676600 405.000000
17.696100 386.000000
17.715600 340.000000
17.735100 368.000000
17.754600 379.000000
17.774000 379.000000
17.793500 409.000000
17.813000 402.000000
17.832500 371.000000
17.852000 382.000000
17.871400 407.000000
17.890900 390.000000
17.910400 382.000000
17.929900 417.000000
17.949400 393.000000
17.968900 386.000000
17.988300 370.000000
18.007800 416.000000
18.027300 383.000000
18.046800 412.000000
18.066300 390.000000
18.085800 358.000000
18.105200 401.000000
18.124700 373.000000
18.144200 408.000000
18.163700 426.000000
18.183200 398.000000
18.202600 368.000000
18.222100 389.000000
18.241600 406.000000
18.261100 374.000000
18.280600 377.000000
18.300100 379.000000
18.319500 411.000000
18.339000 403.000000
18.358500 391.000000
18.378000 406.000000
18.397500 333.000000
18.417000 388.000000
18.436400 379.000000
18.455900 393.000000
18.475400 375.000000
18.494900 408.000000
18.514400 352.000000
18.533800 391.000000
18.553300 422.000000
18.572800 369.000000
18.592300 399.000000
18.611800 359.000000
18.631300 369.000000
18.650700 373.000000
18.670200 386.000000
18.689700 392.000000
18.709200 384.000000
18.728700 402.000000
18.748200 385.000000
18.767600 441.000000
18.787100 483.000000
18.806600 482.000000
18.826100 414.000000
18.845600 381.000000
18.865000 382.000000
18.884500 379.000000
18.904000 404.000000
18.923500 360.000000
18.943000 382.000000
18.962500 381.000000
18.981900 397.000000
19.001400 325.000000
19.020900 348.000000
19.040400 390.000000
19.059900 351.000000
19.079400 369.000000
19.098800 395.000000
19.118300 370.000000
19.137800 397.000000
19.157300 385.000000
19.176800 355.000000
19.196200 352.000000
19.215700 353.000000
19.235200 381.000000
19.254700 349.000000
19.274200 363.000000
19.293700 402.000000
19.313100 376.000000
19.332600 349.000000
19.352100 339.000000
19.371600 377.000000
19.391100 406.000000
19.410600 384.000000
19.430000 413.000000
19.449500 367.000000
19.469000 386.000000
19.488500 377.000000
19.508000 373.000000
19.527400 370.000000
19.546900 361.000000
19.566400 362.000000
19.585900 346.000000
19.605400 332.000000
19.624900 391.000000
19.644300 368.000000
19.663800 356.000000
19.683300 338.000000
19.702800 346.000000
19.722300 383.000000
19.741800 350.000000
19.761200 333.000000
19.780700 319.000000
19.800200 346.000000
19.819700 362.000000
19.839200 362.000000
19.858600 345.000000
19.878100 348.000000
19.897600 314.000000
19.917100 376.000000
19.936600 379.000000
19.956100 346.000000
19.975500 385.000000
19.995000 356.000000
20.014500 338.000000
20.034000 371.000000
20.053500 388.000000
20.073000 393.000000
20.092400 353.000000
20.111900 403.000000
20.131400 458.000000
20.150900 440.000000
20.170400 483.000000
20.189800 449.000000
20.209300 434.000000
20.228800 474.000000
20.248300 498.000000
20.267800 461.000000
20.287300 473.000000
20.306700 425.000000
20.326200 482.000000
20.345700 457.000000
20.365200 511.000000
20.384700 500.000000
20.404200 508.000000
20.423600 461.000000
20.443100 490.000000
20.462600 448.000000
20.482100 475.000000
20.501600 508.000000
20.521000 511.000000
20.540500 524.000000
20.560000 508.000000
20.579500 525.000000
20.599000 585.000000
20.618500 619.000000
20.637900 663.000000
20.657400 708.000000
20.676900 800.000000
20.696400 1108.000000
20.715900 1659.000000
20.735400 2619.000000
20.754800 4876.000000
20.774300 8648.000000
20.793800 15487.000000
20.813300 28047.000000
20.832800 36043.000000
20.852200 31549.000000
20.871700 23316.000000
20.891200 17968.000000
20.910700 10521.000000
20.930200 4214.000000
20.949700 1778.000000
20.969100 1150.000000
20.988600 886.000000
21.008100 697.000000
21.027600 701.000000
21.047100 597.000000
21.066600 596.000000
21.086000 589.000000
21.105500 549.000000
21.125000 533.000000
21.144500 484.000000
21.164000 496.000000
21.183400 451.000000
21.202900 464.000000
21.222400 472.000000
21.241900 447.000000
21.261400 473.000000
21.280900 469.000000
21.300300 427.000000
21.319800 462.000000
21.339300 414.000000
21.358800 435.000000
21.378300 433.000000
21.397800 432.000000
21.417200 417.000000
21.436700 412.000000
21.456200 408.000000
21.475700 434.000000
21.495200 396.000000
21.514600 394.000000
21.534100 398.000000
21.553600 403.000000
21.573100 405.000000
21.592600 430.000000
21.612100 391.000000
21.631500 441.000000
21.651000 411.000000
21.670500 421.000000
21.690000 383.000000
21.709500 399.000000
21.729000 435.000000
21.748400 410.000000
21.767900 367.000000
21.787400 380.000000
21.806900 402.000000
21.826400 401.000000
21.845800 370.000000
21.865300 367.000000
21.884800 380.000000
21.904300 368.000000
21.923800 371.000000
21.943300 385.000000
21.962700 350.000000
21.982200 412.000000
22.001700 355.000000
22.021200 378.000000
22.040700 398.000000
22.060200 386.000000
22.079600 354.000000
22.099100 398.000000
22.118600 383.000000
22.138100 344.000000
22.157600 400.000000
22.177000 347.000000
22.196500 351.000000
22.216000 396.000000
22.235500 379.000000
22.255000 407.000000
22.274500 396.000000
22.293900 389.000000
22.313400 392.000000
22.332900 369.000000
22.352400 379.000000
22.371900 375.000000
22.391400 366.000000
22.410800 392.000000
22.430300 355.000000
22.449800 373.000000
22.469300 352.000000
22.488800 363.000000
22.508300 350.000000
22.527700 364.000000
22.547200 354.000000
22.566700 382.000000
22.586200 365.000000
22.605700 328.000000
22.625100 365.000000
22.644600 388.000000
22.664100 344.000000
22.683600 358.000000
22.703100 379.000000
22.722600 375.000000
22.742000 361.000000
22.761500 344.000000
22.781000 349.000000
22.800500 358.000000
22.820000 378.000000
22.839500 364.000000
22.858900 341.000000
22.878400 374.000000
22.897900 365.000000
22.917400 357.000000
22.936900 383.000000
22.956300 379.000000
22.975800 324.000000
22.995300 374.000000
23.014800 372.000000
23.034300 391.000000
23.053800 375.000000
23.073200 353.000000
23.092700 363.000000
23.112200 354.000000
23.131700 367.000000
23.151200 366.000000
23.170700 351.000000
23.190100 369.000000
23.209600 339.000000
23.229100 396.000000
23.248600 335.000000
23.268100 366.000000
23.287500 404.000000
23.307000 366.000000
23.326500 362.000000
23.346000 374.000000
23.365500 345.000000
23.385000 346.000000
23.404400 365.000000
23.423900 350.000000
23.443400 328.000000
23.462900 371.000000
23.482400 338.000000
23.501900 374.000000
23.521300 385.000000
23.540800 365.000000
23.560300 351.000000
23.579800 347.000000
23.599300 329.000000
23.618700 365.000000
23.638200 370.000000
23.657700 346.000000
23.677200 354.000000
23.696700 352.000000
23.716200 344.000000
23.735600 375.000000
23.755100 393.000000
23.774600 363.000000
23.794100 351.000000
23.813600 372.000000
23.833100 345.000000
23.852500 388.000000
23.872000 345.000000
23.891500 381.000000
23.911000 374.000000
23.930500 386.000000
23.949900 460.000000
23.969400 524.000000
23.988900 581.000000
24.008400 639.000000
24.027900 596.000000
24.047400 472.000000
24.066800 397.000000
24.086300 370.000000
24.105800 387.000000
24.125300 364.000000
24.144800 365.000000
24.164300 353.000000
24.183700 336.000000
24.203200 359.000000
24.222700 314.000000
24.242200 335.000000
24.261700 374.000000
24.281100 325.000000
24.300600 379.000000
24.320100 352.000000
24.339600 377.000000
24.359100 327.000000
24.378600 388.000000
24.398000 335.000000
24.417500 389.000000
24.437000 338.000000
24.456500 335.000000
24.476000 345.000000
24.495500 329.000000
24.514900 356.000000
24.534400 338.000000
24.553900 380.000000
24.573400 337.000000
24.592900 338.000000
24.612300 325.000000
24.631800 311.000000
24.651300 325.000000
24.670800 363.000000
24.690300 319.000000
24.709800 329.000000
24.729200 366.000000
24.748700 357.000000
24.768200 309.000000
24.787700 319.000000
24.807200 340.000000
24.826700 371.000000
24.846100 321.000000
24.865600 321.000000
24.885100 342.000000
24.904600 359.000000
24.924100 332.000000
24.943500 323.000000
24.963000 342.000000
24.982500 358.000000
25.002000 311.000000
25.021500 338.000000
25.041000 400.000000
25.060400 377.000000
25.079900 317.000000
25.099400 347.000000
25.118900 322.000000
25.138400 321.000000
25.157900 366.000000
25.177300 338.000000
25.196800 323.000000
25.216300 336.000000
25.235800 322.000000
25.255300 321.000000
25.274700 326.000000
25.294200 325.000000
25.313700 344.000000
25.333200 312.000000
25.352700 355.000000
25.372200 352.000000
25.391600 354.000000
25.411100 322.000000
25.430600 325.000000
25.450100 365.000000
25.469600 374.000000
25.489100 354.000000
25.508500 344.000000
25.528000 330.000000
25.547500 317.000000
25.567000 335.000000
25.586500 335.000000
25.605900 354.000000
25.625400 333.000000
25.644900 399.000000
25.664400 429.000000
25.683900 470.000000
25.703400 552.000000
25.722800 612.000000
25.742300 673.000000
25.761800 635.000000
25.781300 642.000000
25.800800 581.000000
25.820300 678.000000
25.839700 639.000000
25.859200 610.000000
25.878700 636.000000
25.898200 632.000000
25.917700 648.000000
25.937100 641.000000
25.956600 684.000000
25.976100 629.000000
25.995600 613.000000
26.015100 661.000000
26.034600 711.000000
26.054000 665.000000
26.073500 700.000000
26.093000 708.000000
26.112500 692.000000
26.132000 703.000000
26.151500 731.000000
26.170900 693.000000
26.190400 758.000000
26.209900 780.000000
26.229400 834.000000
26.248900 865.000000
26.268300 863.000000
26.287800 957.000000
26.307300 1026.000000
26.326800 1054.000000
26.346300 1131.000000
26.365800 1173.000000
26.385200 1231.000000
26.404700 1484.000000
26.424200 1717.000000
26.443700 2089.000000
26.463200 2772.000000
26.482700 3871.000000
26.502100 6035.000000
26.521600 10023.000000
26.541100 17875.000000
26.560600 32430.000000
26.580100 57540.000000
26.599500 87186.000000
26.619000 114108.000000
26.638500 110941.000000
26.658000 72812.000000
26.677500 58242.000000
26.697000 56106.000000
26.716400 34215.000000
26.735900 12652.000000
26.755400 5431.000000
26.774900 3203.000000
26.794400 2521.000000
26.813900 1949.000000
26.833300 1728.000000
26.852800 1450.000000
26.872300 1312.000000
26.891800 1227.000000
26.911300 1086.000000
26.930700 1062.000000
26.950200 946.000000
26.969700 909.000000
26.989200 853.000000
27.008700 790.000000
27.028200 778.000000
27.047600 801.000000
27.067100 718.000000
27.086600 691.000000
27.106100 669.000000
27.125600 664.000000
27.145100 677.000000
27.164500 665.000000
27.184000 616.000000
27.203500 601.000000
27.223000 618.000000
27.242500 594.000000
27.261900 571.000000
27.281400 569.000000
27.300900 573.000000
27.320400 525.000000
27.339900 584.000000
27.359400 543.000000
27.378800 537.000000
27.398300 505.000000
27.417800 525.000000
27.437300 528.000000
27.456800 516.000000
27.476300 587.000000
27.495700 509.000000
27.515200 520.000000
27.534700 504.000000
27.554200 553.000000
27.573700 501.000000
27.593100 486.000000
27.612600 484.000000
27.632100 490.000000
27.651600 504.000000
27.671100 468.000000
27.690600 513.000000
27.710000 481.000000
27.729500 508.000000
27.749000 487.000000
27.768500 470.000000
27.788000 482.000000
27.807500 489.000000
27.826900 461.000000
27.846400 480.000000
27.865900 463.000000
27.885400 461.000000
27.904900 475.000000
27.924300 449.000000
27.943800 516.000000
27.963300 463.000000
27.982800 418.000000
28.002300 453.000000
28.021800 432.000000
28.041200 436.000000
28.060700 467.000000
28.080200 449.000000
28.099700 435.000000
28.119200 437.000000
28.138700 440.000000
28.158100 449.000000
28.177600 438.000000
28.197100 418.000000
28.216600 422.000000
28.236100 445.000000
28.255500 418.000000
28.275000 402.000000
28.294500 376.000000
28.314000 431.000000
28.333500 447.000000
28.353000 434.000000
28.372400 449.000000
28.391900 415.000000
28.411400 402.000000
28.430900 432.000000
28.450400 445.000000
28.469900 397.000000
28.489300 398.000000
28.508800 448.000000
28.528300 437.000000
28.547800 371.000000
28.567300 402.000000
28.586800 425.000000
28.606200 400.000000
28.625700 365.000000
28.645200 441.000000
28.664700 385.000000
28.684200 383.000000
28.703600 416.000000
28.723100 399.000000
28.742600 369.000000
28.762100 381.000000
28.781600 386.000000
28.801100 409.000000
28.820500 415.000000
28.840000 432.000000
28.859500 430.000000
28.879000 402.000000
28.898500 400.000000
28.918000 403.000000
28.937400 358.000000
28.956900 378.000000
28.976400 433.000000
28.995900 398.000000
29.015400 369.000000
29.034800 409.000000
29.054300 382.000000
29.073800 406.000000
29.093300 411.000000
29.112800 365.000000
29.132300 371.000000
29.151700 356.000000
29.171200 377.000000
29.190700 354.000000
29.210200 337.000000
29.229700 385.000000
29.249200 381.000000
29.268600 409.000000
29.288100 380.000000
29.307600 422.000000
29.327100 413.000000
29.346600 423.000000
29.366000 455.000000
29.385500 455.000000
29.405000 421.000000
29.424500 471.000000
29.444000 417.000000
29.463500 406.000000
29.482900 405.000000
29.502400 390.000000
29.521900 378.000000
29.541400 410.000000
29.560900 369.000000
29.580300 353.000000
29.599800 359.000000
29.619300 306.000000
29.638800 390.000000
29.658300 380.000000
29.677800 347.000000
29.697200 375.000000
29.716700 381.000000
29.736200 355.000000
29.755700 344.000000
29.775200 355.000000
29.794700 344.000000
29.814100 348.000000
29.833600 327.000000
29.853100 330.000000
29.872600 354.000000
29.892100 347.000000
29.911600 326.000000
29.931000 350.000000
29.950500 340.000000
29.970000 345.000000
29.989500 349.000000
30.009000 330.000000
30.028400 357.000000
30.047900 370.000000
30.067400 332.000000
30.086900 355.000000
30.106400 333.000000
30.125900 341.000000
30.145300 345.000000
30.164800 381.000000
30.184300 349.000000
30.203800 343.000000
30.223300 281.000000
30.242800 328.000000
30.262200 331.000000
30.281700 321.000000
30.301200 367.000000
30.320700 362.000000
30.340200 361.000000
30.359600 324.000000
30.379100 334.000000
30.398600 336.000000
30.418100 338.000000
30.437600 356.000000
30.457100 365.000000
30.476500 376.000000
30.496000 350.000000
30.515500 337.000000
30.535000 376.000000
30.554500 345.000000
30.574000 341.000000
30.593400 340.000000
30.612900 356.000000
30.632400 346.000000
30.651900 289.000000
30.671400 327.000000
30.690800 326.000000
30.710300 319.000000
30.729800 299.000000
30.749300 323.000000
30.768800 366.000000
30.788300 305.000000
30.807700 335.000000
30.827200 327.000000
30.846700 315.000000
30.866200 340.000000
30.885700 321.000000
30.905200 327.000000
30.924600 323.000000
30.944100 329.000000
30.963600 309.000000
30.983100 311.000000
31.002600 317.000000
31.022000 355.000000
31.041500 305.000000
31.061000 325.000000
31.080500 346.000000
31.100000 329.000000
31.119500 318.000000
31.138900 308.000000
31.158400 295.000000
31.177900 300.000000
31.197400 324.000000
31.216900 308.000000
31.236400 332.000000
31.255800 328.000000
31.275300 334.000000
31.294800 348.000000
31.314300 320.000000
31.333800 312.000000
31.353200 312.000000
31.372700 313.000000
31.392200 297.000000
31.411700 299.000000
31.431200 325.000000
31.450700 334.000000
31.470100 347.000000
31.489600 307.000000
31.509100 303.000000
31.528600 298.000000
31.548100 303.000000
31.567600 302.000000
31.587000 315.000000
31.606500 320.000000
31.626000 320.000000
31.645500 285.000000
31.665000 295.000000
31.684400 313.000000
31.703900 289.000000
31.723400 316.000000
31.742900 301.000000
31.762400 310.000000
31.781900 283.000000
31.801300 315.000000
31.820800 308.000000
31.840300 307.000000
31.859800 294.000000
31.879300 330.000000
31.898800 316.000000
31.918200 300.000000
31.937700 315.000000
31.957200 305.000000
31.976700 291.000000
31.996200 286.000000
32.015600 316.000000
32.035100 277.000000
32.054600 302.000000
32.074100 307.000000
32.093600 295.000000
32.113100 306.000000
32.132500 294.000000
32.152000 291.000000
32.171500 314.000000
32.191000 295.000000
32.210500 286.000000
32.230000 288.000000
32.249400 271.000000
32.268900 276.000000
32.288400 278.000000
32.307900 271.000000
32.327400 288.000000
32.346800 309.000000
32.366300 304.000000
32.385800 300.000000
32.405300 329.000000
32.424800 284.000000
32.444300 273.000000
32.463700 308.000000
32.483200 283.000000
32.502700 268.000000
32.522200 283.000000
32.541700 289.000000
32.561200 287.000000
32.580600 284.000000
32.600100 308.000000
32.619600 293.000000
32.639100 283.000000
32.658600 281.000000
32.678000 307.000000
32.697500 277.000000
32.717000 289.000000
32.736500 281.000000
32.756000 293.000000
32.775500 273.000000
32.794900 310.000000
32.814400 306.000000
32.833900 292.000000
32.853400 294.000000
32.872900 309.000000
32.892400 302.000000
32.911800 326.000000
32.931300 302.000000
32.950800 275.000000
32.970300 280.000000
32.989800 269.000000
33.009200 259.000000
33.028700 302.000000
33.048200 291.000000
33.067700 274.000000
33.087200 280.000000
33.106700 294.000000
33.126100 279.000000
33.145600 305.000000
33.165100 280.000000
33.184600 288.000000
33.204100 275.000000
33.223600 279.000000
33.243000 265.000000
33.262500 284.000000
33.282000 255.000000
33.301500 273.000000
33.321000 282.000000
33.340400 287.000000
33.359900 272.000000
33.379400 279.000000
33.398900 265.000000
33.418400 266.000000
33.437900 300.000000
33.457300 260.000000
33.476800 272.000000
33.496300 290.000000
33.515800 286.000000
33.535300 285.000000
33.554800 298.000000
33.574200 249.000000
33.593700 276.000000
33.613200 274.000000
33.632700 298.000000
33.652200 284.000000
33.671600 277.000000
33.691100 284.000000
33.710600 279.000000
33.730100 289.000000
33.749600 266.000000
33.769100 269.000000
33.788500 283.000000
33.808000 280.000000
33.827500 297.000000
33.847000 238.000000
33.866500 252.000000
33.886000 268.000000
33.905400 256.000000
33.924900 253.000000
33.944400 247.000000
33.963900 246.000000
33.983400 281.000000
34.002800 283.000000
34.022300 259.000000
34.041800 257.000000
34.061300 247.000000
34.080800 250.000000
34.100300 279.000000
34.119700 276.000000
34.139200 268.000000
34.158700 245.000000
34.178200 271.000000
34.197700 250.000000
34.217200 254.000000
34.236600 298.000000
34.256100 243.000000
34.275600 266.000000
34.295100 217.000000
34.314600 289.000000
34.334000 249.000000
34.353500 245.000000
34.373000 264.000000
34.392500 272.000000
34.412000 301.000000
34.431500 261.000000
34.450900 263.000000
34.470400 270.000000
34.489900 291.000000
34.509400 299.000000
34.528900 259.000000
34.548400 266.000000
34.567800 270.000000
34.587300 280.000000
34.606800 286.000000
34.626300 241.000000
34.645800 272.000000
34.665200 254.000000
34.684700 267.000000
34.704200 281.000000
34.723700 268.000000
34.743200 269.000000
34.762700 279.000000
34.782100 247.000000
34.801600 302.000000
34.821100 236.000000
34.840600 260.000000
34.860100 244.000000
34.879600 260.000000
34.899000 270.000000
34.918500 274.000000
34.938000 267.000000
34.957500 252.000000
34.977000 286.000000
34.996500 252.000000
35.015900 307.000000
35.035400 279.000000
35.054900 256.000000
35.074400 270.000000
35.093900 268.000000
35.113300 269.000000
35.132800 238.000000
35.152300 284.000000
35.171800 232.000000
35.191300 286.000000
35.210800 290.000000
35.230200 242.000000
35.249700 289.000000
35.269200 285.000000
35.288700 288.000000
35.308200 249.000000
35.327600 288.000000
35.347100 249.000000
35.366600 287.000000
35.386100 299.000000
35.405600 269.000000
35.425100 294.000000
35.444500 277.000000
35.464000 277.000000
35.483500 311.000000
35.503000 290.000000
35.522500 291.000000
35.542000 291.000000
35.561400 252.000000
35.580900 263.000000
35.600400 260.000000
35.619900 289.000000
35.639400 283.000000
35.658800 294.000000
35.678300 278.000000
35.697800 267.000000
35.717300 271.000000
35.736800 273.000000
35.756300 255.000000
35.775700 270.000000
35.795200 280.000000
35.814700 309.000000
35.834200 234.000000
35.853700 287.000000
35.873200 289.000000
35.892600 263.000000
35.912100 264.000000
35.931600 284.000000
35.951100 280.000000
35.970600 287.000000
35.990100 281.000000
36.009500 286.000000
36.029000 280.000000
36.048500 266.000000
36.068000 289.000000
36.087500 334.000000
36.106900 271.000000
36.126400 293.000000
36.145900 296.000000
36.165400 270.000000
36.184900 321.000000
36.204400 314.000000
36.223800 314.000000
36.243300 325.000000
36.262800 361.000000
36.282300 346.000000
36.301800 342.000000
36.321300 389.000000
36.340700 413.000000
36.360200 462.000000
36.379700 541.000000
36.399200 596.000000
36.418700 818.000000
36.438100 1322.000000
36.457600 2177.000000
36.477100 3885.000000
36.496600 5598.000000
36.516100 6862.000000
36.535600 7797.000000
36.555000 6214.000000
36.574500 4328.000000
36.594000 3753.000000
36.613500 3933.000000
36.633000 3841.000000
36.652500 2652.000000
36.671900 1399.000000
36.691400 797.000000
36.710900 527.000000
36.730400 455.000000
36.749900 384.000000
36.769300 331.000000
36.788800 351.000000
36.808300 331.000000
36.827800 315.000000
36.847300 308.000000
36.866800 296.000000
36.886200 307.000000
36.905700 298.000000
36.925200 277.000000
36.944700 289.000000
36.964200 295.000000
36.983700 277.000000
37.003100 240.000000
37.022600 290.000000
37.042100 279.000000
37.061600 268.000000
37.081100 274.000000
37.100500 250.000000
37.120000 260.000000
37.139500 280.000000
37.159000 312.000000
37.178500 234.000000
37.198000 257.000000
37.217400 261.000000
37.236900 236.000000
37.256400 259.000000
37.275900 236.000000
37.295400 276.000000
37.314900 262.000000
37.334300 272.000000
37.353800 250.000000
37.373300 258.000000
37.392800 270.000000
37.412300 254.000000
37.431700 252.000000
37.451200 250.000000
37.470700 273.000000
37.490200 275.000000
37.509700 291.000000
37.529200 284.000000
37.548600 256.000000
37.568100 250.000000
37.587600 261.000000
37.607100 253.000000
37.626600 264.000000
37.646100 264.000000
37.665500 259.000000
37.685000 283.000000
37.704500 250.000000
37.724000 255.000000
37.743500 246.000000
37.762900 260.000000
37.782400 262.000000
37.801900 257.000000
37.821400 242.000000
37.840900 222.000000
37.860400 242.000000
37.879800 267.000000
37.899300 255.000000
37.918800 273.000000
37.938300 252.000000
37.957800 268.000000
37.977300 212.000000
37.996700 271.000000
38.016200 282.000000
38.035700 231.000000
38.055200 262.000000
38.074700 266.000000
38.094100 243.000000
38.113600 283.000000
38.133100 265.000000
38.152600 291.000000
38.172100 278.000000
38.191600 279.000000
38.211000 261.000000
38.230500 261.000000
38.250000 249.000000
38.269500 273.000000
38.289000 245.000000
38.308500 256.000000
38.327900 258.000000
38.347400 282.000000
38.366900 262.000000
38.386400 247.000000
38.405900 248.000000
38.425300 247.000000
38.444800 281.000000
38.464300 289.000000
38.483800 260.000000
38.503300 265.000000
38.522800 259.000000
38.542200 271.000000
38.561700 263.000000
38.581200 270.000000
38.600700 251.000000
38.620200 248.000000
38.639700 260.000000
38.659100 255.000000
38.678600 282.000000
38.698100 253.000000
38.717600 228.000000
38.737100 252.000000
38.756500 245.000000
38.776000 245.000000
38.795500 260.000000
38.815000 284.000000
38.834500 277.000000
38.854000 288.000000
38.873400 267.000000
38.892900 239.000000
38.912400 271.000000
38.931900 274.000000
38.951400 261.000000
38.970900 308.000000
38.990300 281.000000
39.009800 303.000000
39.029300 264.000000
39.048800 276.000000
39.068300 291.000000
39.087700 269.000000
39.107200 269.000000
39.126700 282.000000
39.146200 282.000000
39.165700 293.000000
39.185200 298.000000
39.204600 352.000000
39.224100 352.000000
39.243600 398.000000
39.263100 395.000000
39.282600 447.000000
39.302100 488.000000
39.321500 564.000000
39.341000 840.000000
39.360500 1263.000000
39.380000 2102.000000
39.399500 3231.000000
39.418900 5016.000000
39.438400 7380.000000
39.457900 8102.000000
39.477400 5660.000000
39.496900 3425.000000
39.516400 2994.000000
39.535800 3752.000000
39.555300 4137.000000
39.574800 3080.000000
39.594300 1667.000000
39.613800 738.000000
39.633300 603.000000
39.652700 462.000000
39.672200 427.000000
39.691700 398.000000
39.711200 335.000000
39.730700 289.000000
39.750100 313.000000
39.769600 309.000000
39.789100 299.000000
39.808600 280.000000
39.828100 308.000000
39.847600 310.000000
39.867000 270.000000
39.886500 287.000000
39.906000 286.000000
39.925500 293.000000
39.945000 305.000000
39.964500 318.000000
39.983900 317.000000
40.003400 315.000000
40.022900 302.000000
40.042400 319.000000
40.061900 334.000000
40.081300 348.000000
40.100800 366.000000
40.120300 359.000000
40.139800 455.000000
40.159300 515.000000
40.178800 744.000000
40.198200 1014.000000
40.217700 1558.000000
40.237200 2309.000000
40.256700 3185.000000
40.276200 3517.000000
40.295700 2731.000000
40.315100 1775.000000
40.334600 1497.000000
40.354100 1687.000000
40.373600 1935.000000
40.393100 1718.000000
40.412500 1024.000000
40.432000 623.000000
40.451500 435.000000
40.471000 379.000000
40.490500 326.000000
40.510000 316.000000
40.529400 324.000000
40.548900 315.000000
40.568400 270.000000
40.587900 271.000000
40.607400 286.000000
40.626900 290.000000
40.646300 271.000000
40.665800 252.000000
40.685300 243.000000
40.704800 263.000000
40.724300 261.000000
40.743700 278.000000
40.763200 258.000000
40.782700 251.000000
40.802200 275.000000
40.821700 261.000000
40.841200 268.000000
40.860600 232.000000
40.880100 276.000000
40.899600 275.000000
40.919100 258.000000
40.938600 259.000000
40.958100 250.000000
40.977500 294.000000
40.997000 264.000000
41.016500 255.000000
41.036000 271.000000
41.055500 239.000000
41.074900 301.000000
41.094400 250.000000
41.113900 271.000000
41.133400 278.000000
41.152900 297.000000
41.172400 274.000000
41.191800 283.000000
41.211300 274.000000
41.230800 238.000000
41.250300 270.000000
41.269800 274.000000
41.289300 269.000000
41.308700 243.000000
41.328200 269.000000
41.347700 257.000000
41.367200 253.000000
41.386700 247.000000
41.406100 250.000000
41.425600 257.000000
41.445100 237.000000
41.464600 282.000000
41.484100 265.000000
41.503600 240.000000
41.523000 252.000000
41.542500 245.000000
41.562000 275.000000
41.581500 265.000000
41.601000 263.000000
41.620500 264.000000
41.639900 269.000000
41.659400 270.000000
41.678900 267.000000
41.698400 260.000000
41.717900 259.000000
41.737300 225.000000
41.756800 258.000000
41.776300 250.000000
41.795800 240.000000
41.815300 267.000000
41.834800 270.000000
41.854200 262.000000
41.873700 285.000000
41.893200 246.000000
41.912700 282.000000
41.932200 285.000000
41.951700 252.000000
41.971100 272.000000
41.990600 281.000000
42.010100 276.000000
42.029600 293.000000
42.049100 299.000000
42.068500 264.000000
42.088000 289.000000
42.107500 288.000000
42.127000 276.000000
42.146500 302.000000
42.166000 337.000000
42.185400 348.000000
42.204900 344.000000
42.224400 426.000000
42.243900 485.000000
42.263400 419.000000
42.282900 486.000000
42.302300 670.000000
42.321800 924.000000
42.341300 1458.000000
42.360800 2381.000000
42.380300 3813.000000
42.399800 6268.000000
42.419200 8661.000000
42.438700 8663.000000
42.458200 6523.000000
42.477700 4514.000000
42.497200 3665.000000
42.516600 4205.000000
42.536100 4727.000000
42.555600 4113.000000
42.575100 2748.000000
42.594600 1645.000000
42.614100 921.000000
42.633500 608.000000
42.653000 497.000000
42.672500 455.000000
42.692000 386.000000
42.711500 345.000000
42.731000 347.000000
42.750400 329.000000
42.769900 314.000000
42.789400 310.000000
42.808900 305.000000
42.828400 307.000000
42.847800 267.000000
42.867300 292.000000
42.886800 282.000000
42.906300 283.000000
42.925800 255.000000
42.945300 241.000000
42.964700 262.000000
42.984200 280.000000
43.003700 284.000000
43.023200 240.000000
43.042700 281.000000
43.062200 241.000000
43.081600 278.000000
43.101100 231.000000
43.120600 238.000000
43.140100 260.000000
43.159600 275.000000
43.179000 249.000000
43.198500 262.000000
43.218000 277.000000
43.237500 217.000000
43.257000 254.000000
43.276500 274.000000
43.295900 247.000000
43.315400 251.000000
43.334900 273.000000
43.354400 270.000000
43.373900 247.000000
43.393300 230.000000
43.412800 271.000000
43.432300 227.000000
43.451800 240.000000
43.471300 226.000000
43.490800 239.000000
43.510200 221.000000
43.529700 232.000000
43.549200 249.000000
43.568700 205.000000
43.588200 252.000000
43.607700 248.000000
43.627100 221.000000
43.646600 227.000000
43.666100 225.000000
43.685600 231.000000
43.705100 266.000000
43.724600 226.000000
43.744000 238.000000
43.763500 234.000000
43.783000 244.000000
43.802500 269.000000
43.822000 229.000000
43.841400 226.000000
43.860900 236.000000
43.880400 233.000000
43.899900 231.000000
43.919400 228.000000
43.938900 256.000000
43.958300 230.000000
43.977800 221.000000
43.997300 232.000000
44.016800 259.000000
44.036300 252.000000
44.055800 226.000000
44.075200 240.000000
44.094700 288.000000
44.114200 247.000000
44.133700 217.000000
44.153200 232.000000
44.172600 266.000000
44.192100 214.000000
44.211600 232.000000
44.231100 253.000000
44.250600 246.000000
44.270100 230.000000
44.289500 259.000000
44.309000 247.000000
44.328500 247.000000
44.348000 215.000000
44.367500 230.000000
44.387000 260.000000
44.406400 234.000000
44.425900 227.000000
44.445400 216.000000
44.464900 234.000000
44.484400 243.000000
44.503800 232.000000
44.523300 239.000000
44.542800 238.000000
44.562300 229.000000
44.581800 239.000000
44.601300 240.000000
44.620700 225.000000
44.640200 220.000000
44.659700 250.000000
44.679200 255.000000
44.698700 229.000000
44.718100 212.000000
44.737600 258.000000
44.757100 213.000000
44.776600 213.000000
44.796100 246.000000
44.815600 258.000000
44.835000 235.000000
44.854500 215.000000
44.874000 227.000000
44.893500 213.000000
44.913000 228.000000
44.932500 237.000000
44.951900 239.000000
44.971400 253.000000
44.990900 277.000000
45.010400 256.000000
45.029900 253.000000
45.049400 262.000000
45.068800 264.000000
45.088300 220.000000
45.107800 213.000000
45.127300 227.000000
45.146800 222.000000
45.166200 254.000000
45.185700 237.000000
45.205200 259.000000
45.224700 227.000000
45.244200 246.000000
45.263700 243.000000
45.283100 253.000000
45.302600 242.000000
45.322100 250.000000
45.341600 248.000000
45.361100 237.000000
45.380600 220.000000
45.400000 240.000000
45.419500 224.000000
45.439000 212.000000
45.458500 257.000000
45.478000 263.000000
45.497400 279.000000
45.516900 283.000000
45.536400 251.000000
45.555900 285.000000
45.575400 287.000000
45.594900 301.000000
45.614300 309.000000
45.633800 338.000000
45.653300 479.000000
45.672800 650.000000
45.692300 942.000000
45.711800 1414.000000
45.731200 1893.000000
45.750700 2286.000000
45.770200 2663.000000
45.789700 2533.000000
45.809200 1906.000000
45.828600 1427.000000
45.848100 1321.000000
45.867600 1397.000000
45.887100 1439.000000
45.906600 1407.000000
45.926100 1058.000000
45.945500 617.000000
45.965000 481.000000
45.984500 369.000000
46.004000 297.000000
46.023500 281.000000
46.043000 273.000000
46.062400 267.000000
46.081900 250.000000
46.101400 260.000000
46.120900 240.000000
46.140400 224.000000
46.159800 287.000000
46.179300 242.000000
46.198800 252.000000
46.218300 233.000000
46.237800 208.000000
46.257300 233.000000
46.276700 213.000000
46.296200 229.000000
46.315700 236.000000
46.335200 206.000000
46.354700 208.000000
46.374200 206.000000
46.393600 234.000000
46.413100 227.000000
46.432600 226.000000
46.452100 223.000000
46.471600 231.000000
46.491000 221.000000
46.510500 225.000000
46.530000 226.000000
46.549500 222.000000
46.569000 222.000000
46.588500 248.000000
46.607900 216.000000
46.627400 237.000000
46.646900 218.000000
46.666400 233.000000
46.685900 232.000000
46.705400 198.000000
46.724800 216.000000
46.744300 204.000000
46.763800 209.000000
46.783300 204.000000
46.802800 204.000000
46.822200 238.000000
46.841700 213.000000
46.861200 206.000000
46.880700 219.000000
46.900200 213.000000
46.919700 204.000000
46.939100 223.000000
46.958600 212.000000
46.978100 222.000000
46.997600 227.000000
47.017100 198.000000
47.036600 249.000000
47.056000 226.000000
47.075500 230.000000
47.095000 235.000000
47.114500 238.000000
47.134000 208.000000
47.153400 204.000000
47.172900 248.000000
47.192400 234.000000
47.211900 212.000000
47.231400 221.000000
47.250900 226.000000
47.270300 220.000000
47.289800 202.000000
47.309300 226.000000
47.328800 225.000000
47.348300 224.000000
47.367800 220.000000
47.387200 206.000000
47.406700 225.000000
47.426200 263.000000
47.445700 259.000000
47.465200 302.000000
47.484600 346.000000
47.504100 372.000000
47.523600 382.000000
47.543100 301.000000
47.562600 286.000000
47.582100 290.000000
47.601500 261.000000
47.621000 293.000000
47.640500 336.000000
47.660000 251.000000
47.679500 246.000000
47.699000 227.000000
47.718400 228.000000
47.737900 213.000000
47.757400 219.000000
47.776900 195.000000
47.796400 198.000000
47.815800 238.000000
47.835300 224.000000
47.854800 248.000000
47.874300 192.000000
47.893800 230.000000
47.913300 212.000000
47.932700 198.000000
47.952200 226.000000
47.971700 215.000000
47.991200 233.000000
48.010700 236.000000
48.030200 229.000000
48.049600 214.000000
48.069100 205.000000
48.088600 208.000000
48.108100 186.000000
48.127600 218.000000
48.147000 210.000000
48.166500 212.000000
48.186000 198.000000
48.205500 231.000000
48.225000 215.000000
48.244500 214.000000
48.263900 215.000000
48.283400 205.000000
48.302900 229.000000
48.322400 229.000000
48.341900 233.000000
48.361400 249.000000
48.380800 226.000000
48.400300 219.000000
48.419800 266.000000
48.439300 233.000000
48.458800 298.000000
48.478200 257.000000
48.497700 286.000000
48.517200 277.000000
48.536700 252.000000
48.556200 253.000000
48.575700 268.000000
48.595100 267.000000
48.614600 230.000000
48.634100 251.000000
48.653600 237.000000
48.673100 255.000000
48.692600 216.000000
48.712000 279.000000
48.731500 232.000000
48.751000 229.000000
48.770500 243.000000
48.790000 223.000000
48.809400 237.000000
48.828900 219.000000
48.848400 212.000000
48.867900 228.000000
48.887400 216.000000
48.906900 215.000000
48.926300 220.000000
48.945800 244.000000
48.965300 245.000000
48.984800 219.000000
49.004300 223.000000
49.023800 246.000000
49.043200 229.000000
49.062700 212.000000
49.082200 236.000000
49.101700 235.000000
49.121200 238.000000
49.140600 234.000000
49.160100 222.000000
49.179600 208.000000
49.199100 232.000000
49.218600 242.000000
49.238100 236.000000
49.257500 252.000000
49.277000 237.000000
49.296500 226.000000
49.316000 231.000000
49.335500 255.000000
49.355000 208.000000
49.374400 234.000000
49.393900 239.000000
49.413400 248.000000
49.432900 244.000000
49.452400 252.000000
49.471800 249.000000
49.491300 241.000000
49.510800 239.000000
49.530300 249.000000
49.549800 242.000000
49.569300 241.000000
49.588700 254.000000
49.608200 232.000000
49.627700 277.000000
49.647200 250.000000
49.666700 253.000000
49.686200 255.000000
49.705600 237.000000
49.725100 295.000000
49.744600 261.000000
49.764100 259.000000
49.783600 306.000000
49.803100 326.000000
49.822500 328.000000
49.842000 379.000000
49.861500 345.000000
49.881000 435.000000
49.900500 414.000000
49.919900 454.000000
49.939400 508.000000
49.958900 600.000000
49.978400 739.000000
49.997900 929.000000
50.017400 1459.000000
50.036800 2482.000000
50.056300 3997.000000
50.075800 6226.000000
50.095300 8035.000000
50.114800 8791.000000
50.134300 8101.000000
50.153700 5898.000000
50.173200 4003.000000
50.192700 3479.000000
50.212200 3928.000000
50.231700 4464.000000
50.251100 4729.000000
50.270600 4076.000000
50.290100 2752.000000
50.309600 1575.000000
50.329100 937.000000
50.348600 685.000000
50.368000 537.000000
50.387500 431.000000
50.407000 411.000000
50.426500 399.000000
50.446000 325.000000
50.465500 327.000000
50.484900 312.000000
50.504400 337.000000
50.523900 364.000000
50.543400 419.000000
50.562900 564.000000
50.582300 696.000000
50.601800 708.000000
50.621300 623.000000
50.640800 497.000000
50.660300 408.000000
50.679800 379.000000
50.699200 377.000000
50.718700 468.000000
50.738200 489.000000
50.757700 395.000000
50.777200 330.000000
50.796700 283.000000
50.816100 235.000000
50.835600 271.000000
50.855100 227.000000
50.874600 257.000000
50.894100 248.000000
50.913500 240.000000
50.933000 231.000000
50.952500 239.000000
50.972000 227.000000
50.991500 221.000000
51.011000 230.000000
51.030400 215.000000
51.049900 257.000000
51.069400 240.000000
51.088900 239.000000
51.108400 221.000000
51.127800 231.000000
51.147300 240.000000
51.166800 218.000000
51.186300 232.000000
51.205800 212.000000
51.225300 217.000000
51.244700 218.000000
51.264200 224.000000
51.283700 235.000000
51.303200 229.000000
51.322700 197.000000
51.342200 204.000000
51.361600 199.000000
51.381100 207.000000
51.400600 238.000000
51.420100 208.000000
51.439600 202.000000
51.459100 210.000000
51.478500 187.000000
51.498000 225.000000
51.517500 220.000000
51.537000 202.000000
51.556500 193.000000
51.575900 206.000000
51.595400 164.000000
51.614900 200.000000
51.634400 218.000000
51.653900 196.000000
51.673400 192.000000
51.692800 193.000000
51.712300 202.000000
51.731800 219.000000
51.751300 205.000000
51.770800 219.000000
51.790300 205.000000
51.809700 211.000000
51.829200 197.000000
51.848700 181.000000
51.868200 223.000000
51.887700 201.000000
51.907100 206.000000
51.926600 209.000000
51.946100 217.000000
51.965600 189.000000
51.985100 197.000000
52.004600 214.000000
52.024000 205.000000
52.043500 199.000000
52.063000 224.000000
52.082500 213.000000
52.102000 213.000000
52.121400 217.000000
52.140900 231.000000
52.160400 171.000000
52.179900 224.000000
52.199400 222.000000
52.218900 226.000000
52.238300 210.000000
52.257800 186.000000
52.277300 221.000000
52.296800 181.000000
52.316300 196.000000
52.335800 196.000000
52.355200 179.000000
52.374700 206.000000
52.394200 209.000000
52.413700 193.000000
52.433200 209.000000
52.452700 193.000000
52.472100 213.000000
52.491600 216.000000
52.511100 204.000000
52.530600 214.000000
52.550100 222.000000
52.569500 216.000000
52.589000 203.000000
52.608500 205.000000
52.628000 214.000000
52.647500 198.000000
52.667000 227.000000
52.686400 233.000000
52.705900 236.000000
52.725400 207.000000
52.744900 205.000000
52.764400 197.000000
52.783900 162.000000
52.803300 183.000000
52.822800 200.000000
52.842300 208.000000
52.861800 207.000000
52.881300 186.000000
52.900700 216.000000
52.920200 192.000000
52.939700 222.000000
52.959200 202.000000
52.978700 247.000000
52.998200 212.000000
53.017600 189.000000
53.037100 222.000000
53.056600 206.000000
53.076100 182.000000
53.095600 218.000000
53.115100 184.000000
53.134500 210.000000
53.154000 196.000000
53.173500 198.000000
53.193000 192.000000
53.212500 184.000000
53.231900 220.000000
53.251400 188.000000
53.270900 204.000000
53.290400 234.000000
53.309900 231.000000
53.329400 212.000000
53.348800 218.000000
53.368300 240.000000
53.387800 183.000000
53.407300 203.000000
53.426800 197.000000
53.446300 182.000000
53.465700 221.000000
53.485200 208.000000
53.504700 210.000000
53.524200 193.000000
53.543700 212.000000
53.563100 220.000000
53.582600 221.000000
53.602100 207.000000
53.621600 214.000000
53.641100 229.000000
53.660600 241.000000
53.680000 232.000000
53.699500 214.000000
53.719000 206.000000
53.738500 215.000000
53.758000 209.000000
53.777500 213.000000
53.796900 213.000000
53.816400 202.000000
53.835900 199.000000
53.855400 211.000000
53.874900 220.000000
53.894300 218.000000
53.913800 234.000000
53.933300 223.000000
53.952800 236.000000
53.972300 205.000000
53.991800 182.000000
54.011200 212.000000
54.030700 198.000000
54.050200 197.000000
54.069700 209.000000
54.089200 204.000000
54.108700 210.000000
54.128100 198.000000
54.147600 206.000000
54.167100 222.000000
54.186600 197.000000
54.206100 211.000000
54.225500 216.000000
54.245000 220.000000
54.264500 168.000000
54.284000 201.000000
54.303500 202.000000
54.323000 188.000000
54.342400 226.000000
54.361900 195.000000
54.381400 210.000000
54.400900 229.000000
54.420400 224.000000
54.439900 206.000000
54.459300 237.000000
54.478800 224.000000
54.498300 237.000000
54.517800 244.000000
54.537300 264.000000
54.556700 220.000000
54.576200 250.000000
54.595700 289.000000
54.615200 269.000000
54.634700 276.000000
54.654200 285.000000
54.673600 300.000000
54.693100 313.000000
54.712600 373.000000
54.732100 483.000000
54.751600 709.000000
54.771100 876.000000
54.790500 1318.000000
54.810000 1778.000000
54.829500 2450.000000
54.849000 3022.000000
54.868500 3220.000000
54.887900 2723.000000
54.907400 1741.000000
54.926900 1274.000000
54.946400 1192.000000
54.965900 1354.000000
54.985400 1611.000000
55.004800 1764.000000
55.024300 1635.000000
55.043800 1201.000000
55.063300 794.000000
55.082800 533.000000
55.102300 399.000000
55.121700 343.000000
55.141200 292.000000
55.160700 334.000000
55.180200 332.000000
55.199700 381.000000
55.219100 412.000000
55.238600 590.000000
55.258100 757.000000
55.277600 990.000000
55.297100 1228.000000
55.316600 1040.000000
55.336000 848.000000
55.355500 591.000000
55.375000 515.000000
55.394500 525.000000
55.414000 554.000000
55.433500 647.000000
55.452900 725.000000
55.472400 635.000000
55.491900 485.000000
55.511400 386.000000
55.530900 286.000000
55.550300 278.000000
55.569800 252.000000
55.589300 210.000000
55.608800 228.000000
55.628300 244.000000
55.647800 238.000000
55.667200 235.000000
55.686700 207.000000
55.706200 197.000000
55.725700 192.000000
55.745200 205.000000
55.764700 210.000000
55.784100 209.000000
55.803600 198.000000
55.823100 213.000000
55.842600 210.000000
55.862100 215.000000
55.881600 209.000000
55.901000 191.000000
55.920500 171.000000
55.940000 204.000000
55.959500 208.000000
55.979000 209.000000
55.998400 189.000000
56.017900 211.000000
56.037400 191.000000
56.056900 197.000000
56.076400 201.000000
56.095900 234.000000
56.115300 207.000000
56.134800 205.000000
56.154300 204.000000
56.173800 198.000000
56.193300 213.000000
56.212700 189.000000
56.232200 213.000000
56.251700 215.000000
56.271200 198.000000
56.290700 188.000000
56.310200 202.000000
56.329600 163.000000
56.349100 196.000000
56.368600 185.000000
56.388100 221.000000
56.407600 193.000000
56.427100 182.000000
56.446500 203.000000
56.466000 194.000000
56.485500 175.000000
56.505000 185.000000
56.524500 228.000000
56.544000 185.000000
56.563400 170.000000
56.582900 188.000000
56.602400 165.000000
56.621900 196.000000
56.641400 195.000000
56.660800 172.000000
56.680300 182.000000
56.699800 169.000000
56.719300 180.000000
56.738800 177.000000
56.758300 208.000000
56.777700 185.000000
56.797200 213.000000
56.816700 196.000000
56.836200 197.000000
56.855700 223.000000
56.875100 183.000000
56.894600 203.000000
56.914100 200.000000
56.933600 188.000000
56.953100 177.000000
56.972600 211.000000
56.992000 193.000000
57.011500 203.000000
57.031000 200.000000
57.050500 206.000000
57.070000 195.000000
57.089500 211.000000
57.108900 191.000000
57.128400 226.000000
57.147900 282.000000
57.167400 310.000000
57.186900 342.000000
57.206400 341.000000
57.225800 309.000000
57.245300 263.000000
57.264800 257.000000
57.284300 245.000000
57.303800 247.000000
57.323200 256.000000
57.342700 278.000000
57.362200 252.000000
57.381700 242.000000
57.401200 232.000000
57.420700 230.000000
57.440100 198.000000
57.459600 187.000000
57.479100 195.000000
57.498600 181.000000
57.518100 216.000000
57.537600 198.000000
57.557000 206.000000
57.576500 193.000000
57.596000 172.000000
57.615500 175.000000
57.635000 193.000000
57.654400 184.000000
57.673900 208.000000
57.693400 196.000000
57.712900 198.000000
57.732400 199.000000
57.751900 197.000000
57.771300 188.000000
57.790800 201.000000
57.810300 198.000000
57.829800 216.000000
57.849300 197.000000
57.868700 200.000000
57.888200 183.000000
57.907700 194.000000
57.927200 188.000000
57.946700 186.000000
57.966200 211.000000
57.985600 204.000000
58.005100 205.000000
58.024600 213.000000
58.044100 171.000000
58.063600 175.000000
58.083100 204.000000
58.102500 207.000000
58.122000 192.000000
58.141500 186.000000
58.161000 198.000000
58.180500 202.000000
58.200000 193.000000
58.219400 182.000000
58.238900 207.000000
58.258400 213.000000
58.277900 210.000000
58.297400 198.000000
58.316800 188.000000
58.336300 210.000000
58.355800 219.000000
58.375300 216.000000
58.394800 199.000000
58.414300 210.000000
58.433700 209.000000
58.453200 194.000000
58.472700 218.000000
58.492200 179.000000
58.511700 199.000000
58.531200 201.000000
58.550600 203.000000
58.570100 190.000000
58.589600 188.000000
58.609100 197.000000
58.628600 229.000000
58.648000 206.000000
58.667500 211.000000
58.687000 207.000000
58.706500 200.000000
58.726000 185.000000
58.745500 191.000000
58.764900 231.000000
58.784400 205.000000
58.803900 217.000000
58.823400 192.000000
58.842900 220.000000
58.862300 198.000000
58.881800 193.000000
58.901300 200.000000
58.920800 203.000000
58.940300 195.000000
58.959800 205.000000
58.979200 199.000000
58.998700 189.000000
59.018200 225.000000
59.037700 205.000000
59.057200 201.000000
59.076700 213.000000
59.096100 218.000000
59.115600 184.000000
59.135100 205.000000
59.154600 225.000000
59.174100 181.000000
59.193600 199.000000
59.213000 209.000000
59.232500 182.000000
59.252000 186.000000
59.271500 197.000000
59.291000 200.000000
59.310400 235.000000
59.329900 228.000000
59.349400 194.000000
59.368900 213.000000
59.388400 240.000000
59.407900 216.000000
59.427300 233.000000
59.446800 247.000000
59.466300 245.000000
59.485800 218.000000
59.505300 239.000000
59.524800 265.000000
59.544200 246.000000
59.563700 279.000000
59.583200 286.000000
59.602700 333.000000
59.622200 333.000000
59.641600 349.000000
59.661100 390.000000
59.680600 361.000000
59.700100 409.000000
59.719600 404.000000
59.739100 439.000000
59.758500 535.000000
59.778000 648.000000
59.797500 787.000000
59.817000 1049.000000
59.836500 1701.000000
59.856000 2407.000000
59.875400 3722.000000
59.894900 5594.000000
59.914400 7460.000000
59.933900 8239.000000
59.953400 7867.000000
59.972800 5695.000000
59.992300 3916.000000
60.011800 2719.000000
60.031300 2532.000000
60.050800 2977.000000
60.070300 3762.000000
60.089700 4295.000000
60.109200 4210.000000
60.128700 3458.000000
60.148200 2266.000000
60.167700 1425.000000
60.187200 955.000000
60.206600 693.000000
60.226100 538.000000
60.245600 433.000000
60.265100 392.000000
60.284600 372.000000
60.304000 316.000000
60.323500 281.000000
60.343000 289.000000
60.362500 292.000000
60.382000 257.000000
60.401500 237.000000
60.420900 258.000000
60.440400 220.000000
60.459900 273.000000
60.479400 234.000000
60.498900 247.000000
60.518400 226.000000
60.537800 263.000000
60.557300 220.000000
60.576800 206.000000
60.596300 210.000000
60.615800 214.000000
60.635200 204.000000
60.654700 210.000000
60.674200 207.000000
60.693700 205.000000
60.713200 192.000000
60.732700 225.000000
60.752100 215.000000
60.771600 214.000000
60.791100 218.000000
60.810600 224.000000
60.830100 234.000000
60.849600 197.000000
60.869000 221.000000
60.888500 225.000000
60.908000 220.000000
60.927500 228.000000
60.947000 213.000000
60.966400 229.000000
60.985900 203.000000
61.005400 210.000000
61.024900 189.000000
61.044400 210.000000
61.063900 189.000000
61.083300 202.000000
61.102800 203.000000
61.122300 207.000000
61.141800 182.000000
61.161300 199.000000
61.180800 212.000000
61.200200 191.000000
61.219700 201.000000
61.239200 188.000000
61.258700 182.000000
61.278200 215.000000
61.297600 200.000000
61.317100 189.000000
61.336600 176.000000
61.356100 174.000000
61.375600 187.000000
61.395100 182.000000
61.414500 202.000000
61.434000 168.000000
61.453500 184.000000
61.473000 187.000000
61.492500 177.000000
61.511900 167.000000
61.531400 202.000000
61.550900 183.000000
61.570400 193.000000
61.589900 196.000000
61.609400 183.000000
61.628800 213.000000
61.648300 205.000000
61.667800 182.000000
61.687300 205.000000
61.706800 164.000000
61.726300 197.000000
61.745700 196.000000
61.765200 193.000000
61.784700 170.000000
61.804200 191.000000
61.823700 200.000000
61.843200 198.000000
61.862600 182.000000
61.882100 201.000000
61.901600 184.000000
61.921100 192.000000
61.940600 215.000000
61.960100 184.000000
61.979500 196.000000
61.999000 183.000000
62.018500 201.000000
62.038000 179.000000
62.057500 180.000000
62.076900 194.000000
62.096400 187.000000
62.115900 200.000000
62.135400 158.000000
62.154900 187.000000
62.174400 194.000000
62.193800 199.000000
62.213300 189.000000
62.232800 203.000000
62.252300 163.000000
62.271800 169.000000
62.291200 188.000000
62.310700 208.000000
62.330200 175.000000
62.349700 182.000000
62.369200 181.000000
62.388700 188.000000
62.408100 181.000000
62.427600 170.000000
62.447100 154.000000
62.466600 187.000000
62.486100 197.000000
62.505600 207.000000
62.525000 174.000000
62.544500 191.000000
62.564000 187.000000
62.583500 184.000000
62.603000 187.000000
62.622400 182.000000
62.641900 182.000000
62.661400 192.000000
62.680900 189.000000
62.700400 174.000000
62.719900 197.000000
62.739300 198.000000
62.758800 169.000000
62.778300 179.000000
62.797800 163.000000
62.817300 195.000000
62.836800 162.000000
62.856200 175.000000
62.875700 163.000000
62.895200 181.000000
62.914700 207.000000
62.934200 164.000000
62.953600 188.000000
62.973100 206.000000
62.992600 175.000000
63.012100 182.000000
63.031600 203.000000
63.051100 186.000000
63.070500 196.000000
63.090000 190.000000
63.109500 180.000000
63.129000 180.000000
63.148500 174.000000
63.168000 184.000000
63.187400 173.000000
63.206900 146.000000
63.226400 193.000000
63.245900 179.000000
63.265400 203.000000
63.284800 161.000000
63.304300 169.000000
63.323800 188.000000
63.343300 189.000000
63.362800 181.000000
63.382300 186.000000
63.401700 167.000000
63.421200 183.000000
63.440700 184.000000
63.460200 175.000000
63.479700 196.000000
63.499200 184.000000
63.518600 164.000000
63.538100 202.000000
63.557600 182.000000
63.577100 170.000000
63.596600 190.000000
63.616000 202.000000
63.635500 179.000000
63.655000 191.000000
63.674500 186.000000
63.694000 194.000000
63.713500 192.000000
63.732900 208.000000
63.752400 211.000000
63.771900 212.000000
63.791400 214.000000
63.810900 236.000000
63.830400 222.000000
63.849800 230.000000
63.869300 271.000000
63.888800 318.000000
63.908300 361.000000
63.927800 464.000000
63.947200 618.000000
63.966700 846.000000
63.986200 1094.000000
64.005700 1225.000000
64.025200 1243.000000
64.044700 1026.000000
64.064100 762.000000
64.083600 473.000000
64.103100 489.000000
64.122600 461.000000
64.142100 517.000000
64.161600 656.000000
64.181000 668.000000
64.200500 687.000000
64.220000 642.000000
64.239500 446.000000
64.259000 372.000000
64.278500 291.000000
64.297900 257.000000
64.317400 206.000000
64.336900 200.000000
64.356400 198.000000
64.375900 194.000000
64.395300 196.000000
64.414800 196.000000
64.434300 199.000000
64.453800 191.000000
64.473300 180.000000
64.492800 168.000000
64.512200 193.000000
64.531700 196.000000
64.551200 204.000000
64.570700 190.000000
64.590200 186.000000
64.609700 182.000000
64.629100 183.000000
64.648600 176.000000
64.668100 206.000000
64.687600 211.000000
64.707100 211.000000
64.726500 217.000000
64.746000 219.000000
64.765500 179.000000
64.785000 171.000000
64.804500 204.000000
64.824000 172.000000
64.843400 206.000000
64.862900 196.000000
64.882400 195.000000
64.901900 189.000000
64.921400 181.000000
64.940900 192.000000
64.960300 159.000000
64.979800 191.000000
64.999300 186.000000
65.018800 178.000000
65.038300 180.000000
65.057700 184.000000
65.077200 205.000000
65.096700 173.000000
65.116200 184.000000
65.135700 173.000000
65.155200 182.000000
65.174600 186.000000
65.194100 180.000000
65.213600 204.000000
65.233100 199.000000
65.252600 170.000000
65.272100 171.000000
65.291500 174.000000
65.311000 184.000000
65.330500 186.000000
65.350000 198.000000
65.369500 193.000000
65.388900 211.000000
65.408400 184.000000
65.427900 205.000000
65.447400 198.000000
65.466900 204.000000
65.486400 200.000000
65.505800 239.000000
65.525300 233.000000
65.544800 236.000000
65.564300 253.000000
65.583800 317.000000
65.603300 308.000000
65.622700 316.000000
65.642200 288.000000
65.661700 377.000000
65.681200 472.000000
65.700700 507.000000
65.720100 646.000000
65.739600 787.000000
65.759100 905.000000
65.778600 948.000000
65.798100 844.000000
65.817600 658.000000
65.837000 512.000000
65.856500 453.000000
65.876000 454.000000
65.895500 426.000000
65.915000 472.000000
65.934500 547.000000
65.953900 564.000000
65.973400 519.000000
65.992900 398.000000
66.012400 340.000000
66.031900 302.000000
66.051300 255.000000
66.070800 243.000000
66.090300 214.000000
66.109800 218.000000
66.129300 190.000000
66.148800 183.000000
66.168200 227.000000
66.187700 217.000000
66.207200 207.000000
66.226700 205.000000
66.246200 206.000000
66.265700 214.000000
66.285100 225.000000
66.304600 199.000000
66.324100 209.000000
66.343600 194.000000
66.363100 195.000000
66.382500 196.000000
66.402000 245.000000
66.421500 186.000000
66.441000 189.000000
66.460500 205.000000
66.480000 174.000000
66.499400 203.000000
66.518900 202.000000
66.538400 172.000000
66.557900 220.000000
66.577400 213.000000
66.596900 212.000000
66.616300 214.000000
66.635800 185.000000
66.655300 180.000000
66.674800 192.000000
66.694300 187.000000
66.713700 226.000000
66.733200 188.000000
66.752700 214.000000
66.772200 193.000000
66.791700 182.000000
66.811200 180.000000
66.830600 195.000000
66.850100 210.000000
66.869600 191.000000
66.889100 194.000000
66.908600 225.000000
66.928100 218.000000
66.947500 205.000000
66.967000 196.000000
66.986500 194.000000
67.006000 222.000000
67.025500 234.000000
67.044900 185.000000
67.064400 208.000000
67.083900 210.000000
67.103400 221.000000
67.122900 195.000000
67.142400 206.000000
67.161800 192.000000
67.181300 224.000000
67.200800 219.000000
67.220300 243.000000
67.239800 190.000000
67.259300 237.000000
67.278700 223.000000
67.298200 225.000000
67.317700 232.000000
67.337200 241.000000
67.356700 268.000000
67.376100 270.000000
67.395600 263.000000
67.415100 280.000000
67.434600 254.000000
67.454100 292.000000
67.473600 293.000000
67.493000 341.000000
67.512500 349.000000
67.532000 381.000000
67.551500 439.000000
67.571000 510.000000
67.590500 636.000000
67.609900 828.000000
67.629400 1144.000000
67.648900 1614.000000
67.668400 2205.000000
67.687900 3017.000000
67.707300 3734.000000
67.726800 4135.000000
67.746300 3638.000000
67.765800 2532.000000
67.785300 1841.000000
67.804800 1447.000000
67.824200 1266.000000
67.843700 1270.000000
67.863200 1529.000000
67.882700 1843.000000
67.902200 2189.000000
67.921700 2198.000000
67.941100 1926.000000
67.960600 1642.000000
67.980100 1170.000000
67.999600 1088.000000
68.019100 1216.000000
68.038500 1493.000000
68.058000 2013.000000
68.077500 2729.000000
68.097000 3600.000000
68.116500 4122.000000
68.136000 3881.000000
68.155400 2957.000000
68.174900 2317.000000
68.194400 1968.000000
68.213900 2127.000000
68.233400 2349.000000
68.252900 3134.000000
68.272300 3771.000000
68.291800 4004.000000
68.311300 3988.000000
68.330800 3365.000000
68.350300 2549.000000
68.369800 1796.000000
68.389200 1383.000000
68.408700 1191.000000
68.428200 1208.000000
68.447700 1348.000000
68.467200 1375.000000
68.486600 1449.000000
68.506100 1310.000000
68.525600 998.000000
68.545100 788.000000
68.564600 578.000000
68.584000 463.000000
68.603500 390.000000
68.623000 301.000000
68.642500 311.000000
68.662000 308.000000
68.681500 253.000000
68.700900 269.000000
68.720400 282.000000
68.739900 267.000000
68.759400 246.000000
68.778900 209.000000
68.798400 258.000000
68.817800 241.000000
68.837300 209.000000
68.856800 217.000000
68.876300 195.000000
68.895800 217.000000
68.915300 222.000000
68.934700 220.000000
68.954200 220.000000
68.973700 204.000000
68.993200 203.000000
69.012700 198.000000
69.032100 205.000000
69.051600 201.000000
69.071100 210.000000
69.090600 206.000000
69.110100 212.000000
69.129600 210.000000
69.149000 211.000000
69.168500 208.000000
69.188000 226.000000
69.207500 219.000000
69.227000 199.000000
69.246500 198.000000
69.265900 203.000000
69.285400 188.000000
69.304900 197.000000
69.324400 201.000000
69.343900 194.000000
69.363300 201.000000
69.382800 197.000000
69.402300 200.000000
69.421800 196.000000
69.441300 196.000000
69.460800 219.000000
69.480200 178.000000
69.499700 199.000000
69.519200 187.000000
69.538700 216.000000
69.558200 186.000000
69.577700 186.000000
69.597100 201.000000
69.616600 195.000000
69.636100 217.000000
69.655600 211.000000
69.675100 197.000000
69.694500 192.000000
69.714000 185.000000
69.733500 194.000000
69.753000 170.000000
69.772500 191.000000
69.792000 195.000000
69.811400 188.000000
69.830900 185.000000
69.850400 200.000000
69.869900 197.000000
69.889400 211.000000
69.908800 205.000000
69.928300 191.000000
69.947800 185.000000
69.967300 195.000000
69.986800 168.000000
70.006300 190.000000
70.025800 183.000000
