4.000000 3239.000000
4.019482 3141.000000
4.038965 3114.000000
4.058447 3057.000000
4.077929 2975.000000
4.097412 2929.000000
4.116894 2968.000000
4.136377 2938.000000
4.155859 2912.000000
4.175341 2885.000000
4.194824 2833.000000
4.214306 2695.000000
4.233788 2812.000000
4.253271 2665.000000
4.272753 2835.000000
4.292236 2682.000000
4.311718 2720.000000
4.331200 2669.000000
4.350683 2620.000000
4.370165 2570.000000
4.389647 2686.000000
4.409130 2542.000000
4.428612 2581.000000
4.448094 2617.000000
4.467577 2511.000000
4.487059 2510.000000
4.506542 2484.000000
4.526024 2479.000000
4.545506 2441.000000
4.564989 2407.000000
4.584471 2442.000000
4.603953 2312.000000
4.623436 2376.000000
4.642918 2364.000000
4.662401 2364.000000
4.681883 2230.000000
4.701365 2318.000000
4.720848 2240.000000
4.740330 2307.000000
4.759812 2142.000000
4.779295 2281.000000
4.798777 2220.000000
4.818259 2114.000000
4.837742 2205.000000
4.857224 2208.000000
4.876707 2113.000000
4.896189 2204.000000
4.915671 2218.000000
4.935154 2099.000000
4.954636 2088.000000
4.974118 2157.000000
4.993601 2106.000000
5.013083 2160.000000
5.032566 2078.000000
5.052048 2091.000000
5.071530 2134.000000
5.091013 2103.000000
5.110495 2149.000000
5.129977 2017.000000
5.149460 2057.000000
5.168942 2076.000000
5.188425 2086.000000
5.207907 1987.000000
5.227389 2033.000000
5.246872 1946.000000
5.266354 2022.000000
5.285836 1982.000000
5.305319 1989.000000
5.324801 1953.000000
5.344283 1979.000000
5.363766 1965.000000
5.383248 1965.000000
5.402731 2002.000000
5.422213 2122.000000
5.441695 1953.000000
5.461178 1978.000000
5.480660 2048.000000
5.500142 1948.000000
5.519625 2003.000000
5.539107 1903.000000
5.558590 1931.000000
5.578072 1909.000000
5.597554 1868.000000
5.617037 1906.000000
5.636519 1952.000000
5.656001 1937.000000
5.675484 1894.000000
5.694966 1844.000000
5.714448 1946.000000
5.733931 1892.000000
5.753413 1875.000000
5.772896 1899.000000
5.792378 1868.000000
5.811860 1864.000000
5.831343 1843.000000
5.850825 1813.000000
5.870307 1913.000000
5.889790 1869.000000
5.909272 1884.000000
5.928755 1787.000000
5.948237 1851.000000
5.967719 1850.000000
5.987202 1865.000000
6.006684 1822.000000
6.026166 1875.000000
6.045649 1813.000000
6.065131 1813.000000
6.084613 1868.000000
6.104096 1818.000000
6.123578 1803.000000
6.143061 1876.000000
6.162543 1826.000000
6.182025 1834.000000
6.201508 1797.000000
6.220990 1795.000000
6.240472 1774.000000
6.259955 1824.000000
6.279437 1828.000000
6.298920 1795.000000
6.318402 1780.000000
6.337884 1699.000000
6.357367 1733.000000
6.376849 1766.000000
6.396331 1831.000000
6.415814 1680.000000
6.435296 1750.000000
6.454778 1636.000000
6.474261 1686.000000
6.493743 1698.000000
6.513226 1804.000000
6.532708 1701.000000
6.552190 1699.000000
6.571673 1687.000000
6.591155 1751.000000
6.610637 1690.000000
6.630120 1653.000000
6.649602 1665.000000
6.669085 1666.000000
6.688567 1695.000000
6.708049 1749.000000
6.727532 1751.000000
6.747014 1704.000000
6.766496 1708.000000
6.785979 1697.000000
6.805461 1674.000000
6.824944 1798.000000
6.844426 1603.000000
6.863908 1765.000000
6.883391 1587.000000
6.902873 1690.000000
6.922355 1665.000000
6.941838 1751.000000
6.961320 1636.000000
6.980802 1662.000000
7.000285 1676.000000
7.019767 1675.000000
7.039250 1750.000000
7.058732 1667.000000
7.078214 1689.000000
7.097697 1683.000000
7.117179 1686.000000
7.136661 1616.000000
7.156144 1606.000000
7.175626 1683.000000
7.195109 1701.000000
7.214591 1683.000000
7.234073 1744.000000
7.253556 1669.000000
7.273038 1659.000000
7.292520 1548.000000
7.312003 1647.000000
7.331485 1617.000000
7.350967 1680.000000
7.370450 1635.000000
7.389932 1591.000000
7.409415 1619.000000
7.428897 1602.000000
7.448379 1589.000000
7.467862 1633.000000
7.487344 1641.000000
7.506826 1672.000000
7.526309 1668.000000
7.545791 1584.000000
7.565274 1611.000000
7.584756 1615.000000
7.604238 1540.000000
7.623721 1612.000000
7.643203 1612.000000
7.662685 1631.000000
7.682168 1633.000000
7.701650 1590.000000
7.721132 1589.000000
7.740615 1631.000000
7.760097 1546.000000
7.779580 1591.000000
7.799062 1548.000000
7.818544 1572.000000
7.838027 1603.000000
7.857509 1615.000000
7.876991 1587.000000
7.896474 1637.000000
7.915956 1649.000000
7.935439 1556.000000
7.954921 1523.000000
7.974403 1578.000000
7.993886 1517.000000
8.013368 1524.000000
8.032850 1609.000000
8.052333 1562.000000
8.071815 1505.000000
8.091297 1528.000000
8.110780 1595.000000
8.130262 1617.000000
8.149745 1597.000000
8.169227 1632.000000
8.188709 1578.000000
8.208192 1606.000000
8.227674 1621.000000
8.247156 1587.000000
8.266639 1605.000000
8.286121 1573.000000
8.305604 1469.000000
8.325086 1549.000000
8.344568 1599.000000
8.364051 1565.000000
8.383533 1543.000000
8.403015 1557.000000
8.422498 1656.000000
8.441980 1549.000000
8.461463 1535.000000
8.480945 1525.000000
8.500427 1593.000000
8.519910 1581.000000
8.539392 1532.000000
8.558874 1604.000000
8.578357 1572.000000
8.597839 1529.000000
8.617321 1595.000000
8.636804 1486.000000
8.656286 1540.000000
8.675769 1543.000000
8.695251 1520.000000
8.714733 1498.000000
8.734216 1535.000000
8.753698 1563.000000
8.773180 1541.000000
8.792663 1445.000000
8.812145 1577.000000
8.831628 1597.000000
8.851110 1552.000000
8.870592 1557.000000
8.890075 1571.000000
8.909557 1629.000000
8.929039 1538.000000
8.948522 1615.000000
8.968004 1566.000000
8.987486 1500.000000
9.006969 1462.000000
9.026451 1553.000000
9.045934 1585.000000
9.065416 1527.000000
9.084898 1589.000000
9.104381 1527.000000
9.123863 1556.000000
9.143345 1602.000000
9.162828 1502.000000
9.182310 1514.000000
9.201793 1520.000000
9.221275 1508.000000
9.240757 1477.000000
9.260240 1506.000000
9.279722 1546.000000
9.299204 1549.000000
9.318687 1521.000000
9.338169 1519.000000
9.357651 1505.000000
9.377134 1553.000000
9.396616 1567.000000
9.416099 1599.000000
9.435581 1544.000000
9.455063 1433.000000
9.474546 1536.000000
9.494028 1486.000000
9.513510 1580.000000
9.532993 1556.000000
9.552475 1640.000000
9.571958 1521.000000
9.591440 1508.000000
9.610922 1520.000000
9.630405 1483.000000
9.649887 1563.000000
9.669369 1571.000000
9.688852 1596.000000
9.708334 1544.000000
9.727816 1546.000000
9.747299 1563.000000
9.766781 1620.000000
9.786264 1563.000000
9.805746 1455.000000
9.825228 1552.000000
9.844711 1537.000000
9.864193 1482.000000
9.883675 1461.000000
9.903158 1555.000000
9.922640 1521.000000
9.942123 1505.000000
9.961605 1486.000000
9.981087 1494.000000
10.000570 1575.000000
10.020052 1532.000000
10.039534 1534.000000
10.059017 1458.000000
10.078499 1557.000000
10.097982 1532.000000
10.117464 1538.000000
10.136946 1493.000000
10.156429 1535.000000
10.175911 1525.000000
10.195393 1639.000000
10.214876 1526.000000
10.234358 1604.000000
10.253840 1498.000000
10.273323 1494.000000
10.292805 1494.000000
10.312288 1469.000000
10.331770 1501.000000
10.351252 1576.000000
10.370735 1543.000000
10.390217 1575.000000
10.409699 1541.000000
10.429182 1529.000000
10.448664 1515.000000
10.468147 1541.000000
10.487629 1547.000000
10.507111 1550.000000
10.526594 1550.000000
10.546076 1510.000000
10.565558 1618.000000
10.585041 1495.000000
10.604523 1536.000000
10.624005 1510.000000
10.643488 1538.000000
10.662970 1498.000000
10.682453 1533.000000
10.701935 1554.000000
10.721417 1510.000000
10.740900 1566.000000
10.760382 1580.000000
10.779864 1539.000000
10.799347 1508.000000
10.818829 1510.000000
10.838312 1519.000000
10.857794 1547.000000
10.877276 1540.000000
10.896759 1494.000000
10.916241 1539.000000
10.935723 1601.000000
10.955206 1594.000000
10.974688 1517.000000
10.994170 1554.000000
11.013653 1544.000000
11.033135 1557.000000
11.052618 1636.000000
11.072100 1524.000000
11.091582 1524.000000
11.111065 1584.000000
11.130547 1563.000000
11.150029 1504.000000
11.169512 1509.000000
11.188994 1517.000000
11.208477 1578.000000
11.227959 1576.000000
11.247441 1565.000000
11.266924 1588.000000
11.286406 1510.000000
11.305888 1508.000000
11.325371 1526.000000
11.344853 1505.000000
11.364335 1533.000000
11.383818 1511.000000
11.403300 1632.000000
11.422783 1501.000000
11.442265 1537.000000
11.461747 1504.000000
11.481230 1506.000000
11.500712 1598.000000
11.520194 1545.000000
11.539677 1474.000000
11.559159 1528.000000
11.578642 1513.000000
11.598124 1523.000000
11.617606 1595.000000
11.637089 1555.000000
11.656571 1612.000000
11.676053 1606.000000
11.695536 1523.000000
11.715018 1555.000000
11.734500 1501.000000
11.753983 1557.000000
11.773465 1540.000000
11.792948 1591.000000
11.812430 1472.000000
11.831912 1550.000000
11.851395 1545.000000
11.870877 1522.000000
11.890359 1554.000000
11.909842 1544.000000
11.929324 1456.000000
11.948807 1549.000000
11.968289 1551.000000
11.987771 1476.000000
12.007254 1557.000000
12.026736 1555.000000
12.046218 1612.000000
12.065701 1493.000000
12.085183 1567.000000
12.104666 1505.000000
12.124148 1488.000000
12.143630 1524.000000
12.163113 1534.000000
12.182595 1532.000000
12.202077 1532.000000
12.221560 1498.000000
12.241042 1466.000000
12.260524 1574.000000
12.280007 1517.000000
12.299489 1529.000000
12.318972 1486.000000
12.338454 1480.000000
12.357936 1523.000000
12.377419 1505.000000
12.396901 1530.000000
12.416383 1569.000000
12.435866 1535.000000
12.455348 1565.000000
12.474831 1490.000000
12.494313 1493.000000
12.513795 1606.000000
12.533278 1555.000000
12.552760 1584.000000
12.572242 1599.000000
12.591725 1561.000000
12.611207 1577.000000
12.630689 1429.000000
12.650172 1461.000000
12.669654 1477.000000
12.689137 1578.000000
12.708619 1567.000000
12.728101 1575.000000
12.747584 1568.000000
12.767066 1482.000000
12.786548 1590.000000
12.806031 1537.000000
12.825513 1519.000000
12.844996 1503.000000
12.864478 1516.000000
12.883960 1566.000000
12.903443 1541.000000
12.922925 1585.000000
12.942407 1556.000000
12.961890 1516.000000
12.981372 1510.000000
13.000854 1510.000000
13.020337 1510.000000
13.039819 1449.000000
13.059302 1523.000000
13.078784 1505.000000
13.098266 1455.000000
13.117749 1473.000000
13.137231 1602.000000
13.156713 1526.000000
13.176196 1540.000000
13.195678 1499.000000
13.215161 1536.000000
13.234643 1546.000000
13.254125 1480.000000
13.273608 1514.000000
13.293090 1529.000000
13.312572 1551.000000
13.332055 1568.000000
13.351537 1521.000000
13.371019 1502.000000
13.390502 1546.000000
13.409984 1556.000000
13.429467 1523.000000
13.448949 1574.000000
13.468431 1523.000000
13.487914 1535.000000
13.507396 1542.000000
13.526878 1513.000000
13.546361 1560.000000
13.565843 1579.000000
13.585326 1494.000000
13.604808 1532.000000
13.624290 1521.000000
13.643773 1545.000000
13.663255 1548.000000
13.682737 1520.000000
13.702220 1562.000000
13.721702 1573.000000
13.741185 1587.000000
13.760667 1632.000000
13.780149 1564.000000
13.799632 1563.000000
13.819114 1517.000000
13.838596 1524.000000
13.858079 1616.000000
13.877561 1517.000000
13.897043 1537.000000
13.916526 1519.000000
13.936008 1552.000000
13.955491 1498.000000
13.974973 1519.000000
13.994455 1534.000000
14.013938 1540.000000
14.033420 1581.000000
14.052902 1556.000000
14.072385 1550.000000
14.091867 1537.000000
14.111350 1506.000000
14.130832 1500.000000
14.150314 1499.000000
14.169797 1518.000000
14.189279 1458.000000
14.208761 1519.000000
14.228244 1555.000000
14.247726 1493.000000
14.267208 1532.000000
14.286691 1477.000000
14.306173 1500.000000
14.325656 1566.000000
14.345138 1527.000000
14.364620 1482.000000
14.384103 1493.000000
14.403585 1515.000000
14.423067 1528.000000
14.442550 1464.000000
14.462032 1524.000000
14.481515 1521.000000
14.500997 1508.000000
14.520479 1471.000000
14.539962 1476.000000
14.559444 1540.000000
14.578926 1493.000000
14.598409 1542.000000
14.617891 1511.000000
14.637373 1508.000000
14.656856 1451.000000
14.676338 1523.000000
14.695821 1459.000000
14.715303 1539.000000
14.734785 1545.000000
14.754268 1483.000000
14.773750 1566.000000
14.793232 1523.000000
14.812715 1457.000000
14.832197 1526.000000
14.851680 1523.000000
14.871162 1404.000000
14.890644 1433.000000
14.910127 1525.000000
14.929609 1513.000000
14.949091 1497.000000
14.968574 1480.000000
14.988056 1528.000000
15.007538 1556.000000
15.027021 1584.000000
15.046503 1517.000000
15.065986 1567.000000
15.085468 1515.000000
15.104950 1521.000000
15.124433 1568.000000
15.143915 1479.000000
15.163397 1546.000000
15.182880 1540.000000
15.202362 1554.000000
15.221845 1529.000000
15.241327 1557.000000
15.260809 1486.000000
15.280292 1509.000000
15.299774 1490.000000
15.319256 1501.000000
15.338739 1546.000000
15.358221 1462.000000
15.377704 1502.000000
15.397186 1489.000000
15.416668 1437.000000
15.436151 1539.000000
15.455633 1526.000000
15.475115 1584.000000
15.494598 1468.000000
15.514080 1573.000000
15.533562 1532.000000
15.553045 1615.000000
15.572527 1643.000000
15.592010 1499.000000
15.611492 1510.000000
15.630974 1550.000000
15.650457 1536.000000
15.669939 1526.000000
15.689421 1419.000000
15.708904 1462.000000
15.728386 1572.000000
15.747869 1570.000000
15.767351 1574.000000
15.786833 1496.000000
15.806316 1416.000000
15.825798 1514.000000
15.845280 1525.000000
15.864763 1478.000000
15.884245 1503.000000
15.903727 1518.000000
15.923210 1528.000000
15.942692 1539.000000
15.962175 1496.000000
15.981657 1494.000000
16.001139 1591.000000
16.020622 1589.000000
16.040104 1537.000000
16.059586 1622.000000
16.079069 1564.000000
16.098551 1460.000000
16.118034 1555.000000
16.137516 1530.000000
16.156998 1518.000000
16.176481 1592.000000
16.195963 1462.000000
16.215445 1553.000000
16.234928 1471.000000
16.254410 1585.000000
16.273892 1456.000000
16.293375 1526.000000
16.312857 1517.000000
16.332340 1551.000000
16.351822 1537.000000
16.371304 1514.000000
16.390787 1484.000000
16.410269 1506.000000
16.429751 1540.000000
16.449234 1509.000000
16.468716 1527.000000
16.488199 1519.000000
16.507681 1563.000000
16.527163 1458.000000
16.546646 1506.000000
16.566128 1514.000000
16.585610 1512.000000
16.605093 1457.000000
16.624575 1534.000000
16.644057 1504.000000
16.663540 1428.000000
16.683022 1483.000000
16.702505 1538.000000
16.721987 1469.000000
16.741469 1437.000000
16.760952 1493.000000
16.780434 1525.000000
16.799916 1513.000000
16.819399 1508.000000
16.838881 1519.000000
16.858364 1466.000000
16.877846 1475.000000
16.897328 1526.000000
16.916811 1542.000000
16.936293 1459.000000
16.955775 1487.000000
16.975258 1536.000000
16.994740 1524.000000
17.014222 1484.000000
17.033705 1518.000000
17.053187 1493.000000
17.072670 1533.000000
17.092152 1556.000000
17.111634 1513.000000
17.131117 1511.000000
17.150599 1519.000000
17.170081 1478.000000
17.189564 1483.000000
17.209046 1515.000000
17.228529 1470.000000
17.248011 1506.000000
17.267493 1502.000000
17.286976 1550.000000
17.306458 1436.000000
17.325940 1508.000000
17.345423 1487.000000
17.364905 1566.000000
17.384388 1510.000000
17.403870 1538.000000
17.423352 1513.000000
17.442835 1510.000000
17.462317 1509.000000
17.481799 1585.000000
17.501282 1533.000000
17.520764 1528.000000
17.540246 1488.000000
17.559729 1523.000000
17.579211 1550.000000
17.598694 1586.000000
17.618176 1461.000000
17.637658 1541.000000
17.657141 1511.000000
17.676623 1448.000000
17.696105 1531.000000
17.715588 1462.000000
17.735070 1482.000000
17.754553 1506.000000
17.774035 1564.000000
17.793517 1491.000000
17.813000 1518.000000
17.832482 1585.000000
17.851964 1526.000000
17.871447 1438.000000
17.890929 1501.000000
17.910411 1446.000000
17.929894 1547.000000
17.949376 1518.000000
17.968859 1523.000000
17.988341 1491.000000
18.007823 1509.000000
18.027306 1552.000000
18.046788 1540.000000
18.066270 1473.000000
18.085753 1545.000000
18.105235 1536.000000
18.124718 1499.000000
18.144200 1569.000000
18.163682 1471.000000
18.183165 1551.000000
18.202647 1464.000000
18.222129 1443.000000
18.241612 1558.000000
18.261094 1482.000000
18.280576 1493.000000
18.300059 1450.000000
18.319541 1481.000000
18.339024 1526.000000
18.358506 1555.000000
18.377988 1497.000000
18.397471 1512.000000
18.416953 1468.000000
18.436435 1523.000000
18.455918 1532.000000
18.475400 1534.000000
18.494883 1515.000000
18.514365 1495.000000
18.533847 1529.000000
18.553330 1513.000000
18.572812 1525.000000
18.592294 1483.000000
18.611777 1542.000000
18.631259 1549.000000
18.650741 1526.000000
18.670224 1461.000000
18.689706 1511.000000
18.709189 1463.000000
18.728671 1550.000000
18.748153 1517.000000
18.767636 1506.000000
18.787118 1498.000000
18.806600 1477.000000
18.826083 1540.000000
18.845565 1529.000000
18.865048 1553.000000
18.884530 1438.000000
18.904012 1504.000000
18.923495 1425.000000
18.942977 1490.000000
18.962459 1469.000000
18.981942 1540.000000
19.001424 1505.000000
19.020907 1489.000000
19.040389 1502.000000
19.059871 1478.000000
19.079354 1485.000000
19.098836 1541.000000
19.118318 1534.000000
19.137801 1514.000000
19.157283 1532.000000
19.176765 1464.000000
19.196248 1511.000000
19.215730 1530.000000
19.235213 1430.000000
19.254695 1487.000000
19.274177 1455.000000
19.293660 1591.000000
19.313142 1484.000000
19.332624 1542.000000
19.352107 1485.000000
19.371589 1529.000000
19.391072 1491.000000
19.410554 1511.000000
19.430036 1471.000000
19.449519 1467.000000
19.469001 1475.000000
19.488483 1531.000000
19.507966 1471.000000
19.527448 1555.000000
19.546930 1516.000000
19.566413 1466.000000
19.585895 1476.000000
19.605378 1531.000000
19.624860 1497.000000
19.644342 1444.000000
19.663825 1498.000000
19.683307 1559.000000
19.702789 1525.000000
19.722272 1478.000000
19.741754 1525.000000
19.761237 1473.000000
19.780719 1405.000000
19.800201 1533.000000
19.819684 1478.000000
19.839166 1545.000000
19.858648 1459.000000
19.878131 1462.000000
19.897613 1542.000000
19.917095 1519.000000
19.936578 1479.000000
19.956060 1509.000000
19.975543 1555.000000
19.995025 1487.000000
20.014507 1526.000000
20.033990 1485.000000
20.053472 1571.000000
20.072954 1510.000000
20.092437 1543.000000
20.111919 1482.000000
20.131402 1491.000000
20.150884 1571.000000
20.170366 1567.000000
20.189849 1588.000000
20.209331 1496.000000
20.228813 1557.000000
20.248296 1551.000000
20.267778 1509.000000
20.287260 1456.000000
20.306743 1524.000000
20.326225 1565.000000
20.345708 1498.000000
20.365190 1596.000000
20.384672 1465.000000
20.404155 1546.000000
20.423637 1454.000000
20.443119 1504.000000
20.462602 1545.000000
20.482084 1457.000000
20.501567 1506.000000
20.521049 1466.000000
20.540531 1508.000000
20.560014 1470.000000
20.579496 1499.000000
20.598978 1508.000000
20.618461 1532.000000
20.637943 1610.000000
20.657426 1467.000000
20.676908 1502.000000
20.696390 1520.000000
20.715873 1543.000000
20.735355 1446.000000
20.754837 1579.000000
20.774320 1577.000000
20.793802 1517.000000
20.813284 1445.000000
20.832767 1527.000000
20.852249 1477.000000
20.871732 1509.000000
20.891214 1508.000000
20.910696 1526.000000
20.930179 1426.000000
20.949661 1589.000000
20.969143 1560.000000
20.988626 1489.000000
21.008108 1555.000000
21.027591 1523.000000
21.047073 1423.000000
21.066555 1534.000000
21.086038 1534.000000
21.105520 1369.000000
21.125002 1534.000000
21.144485 1482.000000
21.163967 1476.000000
21.183449 1560.000000
21.202932 1472.000000
21.222414 1530.000000
21.241897 1520.000000
21.261379 1511.000000
21.280861 1435.000000
21.300344 1479.000000
21.319826 1545.000000
21.339308 1427.000000
21.358791 1552.000000
21.378273 1549.000000
21.397756 1554.000000
21.417238 1454.000000
21.436720 1534.000000
21.456203 1508.000000
21.475685 1510.000000
21.495167 1527.000000
21.514650 1555.000000
21.534132 1489.000000
21.553614 1522.000000
21.573097 1516.000000
21.592579 1458.000000
21.612062 1511.000000
21.631544 1471.000000
21.651026 1495.000000
21.670509 1477.000000
21.689991 1520.000000
21.709473 1495.000000
21.728956 1519.000000
21.748438 1493.000000
21.767921 1451.000000
21.787403 1555.000000
21.806885 1519.000000
21.826368 1489.000000
21.845850 1478.000000
21.865332 1495.000000
21.884815 1541.000000
21.904297 1532.000000
21.923779 1536.000000
21.943262 1490.000000
21.962744 1509.000000
21.982227 1596.000000
22.001709 1519.000000
22.021191 1458.000000
22.040674 1579.000000
22.060156 1477.000000
22.079638 1649.000000
22.099121 1584.000000
22.118603 1608.000000
22.138086 1500.000000
22.157568 1515.000000
22.177050 1483.000000
22.196533 1550.000000
22.216015 1513.000000
22.235497 1553.000000
22.254980 1511.000000
22.274462 1506.000000
22.293945 1492.000000
22.313427 1468.000000
22.332909 1563.000000
22.352392 1503.000000
22.371874 1500.000000
22.391356 1505.000000
22.410839 1472.000000
22.430321 1596.000000
22.449803 1473.000000
22.469286 1516.000000
22.488768 1521.000000
22.508251 1545.000000
22.527733 1487.000000
22.547215 1486.000000
22.566698 1516.000000
22.586180 1568.000000
22.605662 1544.000000
22.625145 1462.000000
22.644627 1485.000000
22.664110 1513.000000
22.683592 1530.000000
22.703074 1522.000000
22.722557 1558.000000
22.742039 1552.000000
22.761521 1508.000000
22.781004 1479.000000
22.800486 1489.000000
22.819968 1472.000000
22.839451 1477.000000
22.858933 1491.000000
22.878416 1540.000000
22.897898 1527.000000
22.917380 1515.000000
22.936863 1565.000000
22.956345 1554.000000
22.975827 1552.000000
22.995310 1537.000000
23.014792 1540.000000
23.034275 1518.000000
23.053757 1611.000000
23.073239 1631.000000
23.092722 1609.000000
23.112204 1665.000000
23.131686 1600.000000
23.151169 1550.000000
23.170651 1502.000000
23.190133 1447.000000
23.209616 1520.000000
23.229098 1558.000000
23.248581 1570.000000
23.268063 1541.000000
23.287545 1557.000000
23.307028 1617.000000
23.326510 1531.000000
23.345992 1536.000000
23.365475 1584.000000
23.384957 1547.000000
23.404440 1520.000000
23.423922 1511.000000
23.443404 1583.000000
23.462887 1569.000000
23.482369 1604.000000
23.501851 1448.000000
23.521334 1526.000000
23.540816 1600.000000
23.560298 1497.000000
23.579781 1480.000000
23.599263 1507.000000
23.618746 1519.000000
23.638228 1545.000000
23.657710 1626.000000
23.677193 1522.000000
23.696675 1553.000000
23.716157 1575.000000
23.735640 1522.000000
23.755122 1477.000000
23.774605 1544.000000
23.794087 1524.000000
23.813569 1541.000000
23.833052 1526.000000
23.852534 1512.000000
23.872016 1569.000000
23.891499 1559.000000
23.910981 1520.000000
23.930463 1534.000000
23.949946 1469.000000
23.969428 1580.000000
23.988911 1515.000000
24.008393 1556.000000
24.027875 1613.000000
24.047358 1557.000000
24.066840 1493.000000
24.086322 1531.000000
24.105805 1517.000000
24.125287 1534.000000
24.144770 1558.000000
24.164252 1577.000000
24.183734 1530.000000
24.203217 1479.000000
24.222699 1619.000000
24.242181 1431.000000
24.261664 1521.000000
24.281146 1648.000000
24.300629 1552.000000
24.320111 1551.000000
24.339593 1476.000000
24.359076 1582.000000
24.378558 1568.000000
24.398040 1519.000000
24.417523 1618.000000
24.437005 1455.000000
24.456487 1537.000000
24.475970 1442.000000
24.495452 1528.000000
24.514935 1511.000000
24.534417 1507.000000
24.553899 1559.000000
24.573382 1527.000000
24.592864 1516.000000
24.612346 1584.000000
24.631829 1499.000000
24.651311 1535.000000
24.670794 1543.000000
24.690276 1528.000000
24.709758 1532.000000
24.729241 1605.000000
24.748723 1567.000000
24.768205 1637.000000
24.787688 1545.000000
24.807170 1495.000000
24.826652 1586.000000
24.846135 1550.000000
24.865617 1527.000000
24.885100 1525.000000
24.904582 1493.000000
24.924064 1514.000000
24.943547 1650.000000
24.963029 1603.000000
24.982511 1424.000000
25.001994 1459.000000
25.021476 1497.000000
25.040959 1495.000000
25.060441 1521.000000
25.079923 1478.000000
25.099406 1520.000000
25.118888 1560.000000
25.138370 1497.000000
25.157853 1462.000000
25.177335 1481.000000
25.196817 1502.000000
25.216300 1575.000000
25.235782 1546.000000
25.255265 1554.000000
25.274747 1551.000000
25.294229 1567.000000
25.313712 1484.000000
25.333194 1566.000000
25.352676 1538.000000
25.372159 1550.000000
25.391641 1562.000000
25.411124 1474.000000
25.430606 1517.000000
25.450088 1466.000000
25.469571 1536.000000
25.489053 1553.000000
25.508535 1513.000000
25.528018 1505.000000
25.547500 1572.000000
25.566982 1557.000000
25.586465 1532.000000
25.605947 1516.000000
25.625430 1529.000000
25.644912 1525.000000
25.664394 1599.000000
25.683877 1439.000000
25.703359 1501.000000
25.722841 1610.000000
25.742324 1507.000000
25.761806 1478.000000
25.781289 1578.000000
25.800771 1581.000000
25.820253 1492.000000
25.839736 1561.000000
25.859218 1562.000000
25.878700 1555.000000
25.898183 1498.000000
25.917665 1601.000000
25.937148 1619.000000
25.956630 1571.000000
25.976112 1543.000000
25.995595 1566.000000
26.015077 1490.000000
26.034559 1575.000000
26.054042 1591.000000
26.073524 1538.000000
26.093006 1624.000000
26.112489 1451.000000
26.131971 1544.000000
26.151454 1531.000000
26.170936 1557.000000
26.190418 1583.000000
26.209901 1535.000000
26.229383 1538.000000
26.248865 1503.000000
26.268348 1510.000000
26.287830 1535.000000
26.307313 1534.000000
26.326795 1539.000000
26.346277 1522.000000
26.365760 1516.000000
26.385242 1559.000000
26.404724 1632.000000
26.424207 1580.000000
26.443689 1576.000000
26.463171 1569.000000
26.482654 1523.000000
26.502136 1535.000000
26.521619 1556.000000
26.541101 1500.000000
26.560583 1542.000000
26.580066 1494.000000
26.599548 1498.000000
26.619030 1473.000000
26.638513 1578.000000
26.657995 1561.000000
26.677478 1545.000000
26.696960 1524.000000
26.716442 1629.000000
26.735925 1522.000000
26.755407 1518.000000
26.774889 1578.000000
26.794372 1568.000000
26.813854 1540.000000
26.833336 1564.000000
26.852819 1528.000000
26.872301 1526.000000
26.891784 1497.000000
26.911266 1549.000000
26.930748 1565.000000
26.950231 1647.000000
26.969713 1562.000000
26.989195 1514.000000
27.008678 1573.000000
27.028160 1514.000000
27.047643 1536.000000
27.067125 1584.000000
27.086607 1533.000000
27.106090 1599.000000
27.125572 1561.000000
27.145054 1570.000000
27.164537 1521.000000
27.184019 1523.000000
27.203501 1587.000000
27.222984 1541.000000
27.242466 1564.000000
27.261949 1556.000000
27.281431 1532.000000
27.300913 1495.000000
27.320396 1618.000000
27.339878 1516.000000
27.359360 1491.000000
27.378843 1526.000000
27.398325 1561.000000
27.417808 1590.000000
27.437290 1547.000000
27.456772 1596.000000
27.476255 1569.000000
27.495737 1548.000000
27.515219 1535.000000
27.534702 1549.000000
27.554184 1600.000000
27.573667 1547.000000
27.593149 1517.000000
27.612631 1523.000000
27.632114 1521.000000
27.651596 1571.000000
27.671078 1629.000000
27.690561 1588.000000
27.710043 1529.000000
27.729525 1509.000000
27.749008 1611.000000
27.768490 1582.000000
27.787973 1519.000000
27.807455 1557.000000
27.826937 1609.000000
27.846420 1590.000000
27.865902 1560.000000
27.885384 1484.000000
27.904867 1647.000000
27.924349 1517.000000
27.943832 1532.000000
27.963314 1566.000000
27.982796 1657.000000
28.002279 1540.000000
28.021761 1564.000000
28.041243 1628.000000
28.060726 1549.000000
28.080208 1572.000000
28.099690 1551.000000
28.119173 1577.000000
28.138655 1577.000000
28.158138 1540.000000
28.177620 1584.000000
28.197102 1651.000000
28.216585 1558.000000
28.236067 1645.000000
28.255549 1603.000000
28.275032 1571.000000
28.294514 1627.000000
28.313997 1563.000000
28.333479 1592.000000
28.352961 1632.000000
28.372444 1502.000000
28.391926 1681.000000
28.411408 1725.000000
28.430891 1753.000000
28.450373 2102.000000
28.469855 2607.000000
28.489338 3969.000000
28.508820 5320.000000
28.528303 4709.000000
28.547785 3330.000000
28.567267 3268.000000
28.586750 3539.000000
28.606232 2882.000000
28.625714 2054.000000
28.645197 1720.000000
28.664679 1598.000000
28.684162 1620.000000
28.703644 1565.000000
28.723126 1590.000000
28.742609 1676.000000
28.762091 1633.000000
28.781573 1618.000000
28.801056 1653.000000
28.820538 1502.000000
28.840020 1598.000000
28.859503 1497.000000
28.878985 1621.000000
28.898468 1546.000000
28.917950 1554.000000
28.937432 1551.000000
28.956915 1533.000000
28.976397 1593.000000
28.995879 1609.000000
29.015362 1506.000000
29.034844 1581.000000
29.054327 1553.000000
29.073809 1604.000000
29.093291 1594.000000
29.112774 1600.000000
29.132256 1570.000000
29.151738 1574.000000
29.171221 1672.000000
29.190703 1532.000000
29.210185 1588.000000
29.229668 1576.000000
29.249150 1591.000000
29.268633 1564.000000
29.288115 1608.000000
29.307597 1649.000000
29.327080 1525.000000
29.346562 1583.000000
29.366044 1577.000000
29.385527 1584.000000
29.405009 1579.000000
29.424492 1630.000000
29.443974 1594.000000
29.463456 1583.000000
29.482939 1538.000000
29.502421 1617.000000
29.521903 1532.000000
29.541386 1553.000000
29.560868 1498.000000
29.580351 1586.000000
29.599833 1574.000000
29.619315 1502.000000
29.638798 1680.000000
29.658280 1550.000000
29.677762 1559.000000
29.697245 1546.000000
29.716727 1595.000000
29.736209 1583.000000
29.755692 1612.000000
29.775174 1517.000000
29.794657 1705.000000
29.814139 1514.000000
29.833621 1510.000000
29.853104 1583.000000
29.872586 1602.000000
29.892068 1578.000000
29.911551 1584.000000
29.931033 1512.000000
29.950516 1554.000000
29.969998 1624.000000
29.989480 1580.000000
30.008963 1523.000000
30.028445 1532.000000
30.047927 1593.000000
30.067410 1563.000000
30.086892 1560.000000
30.106374 1535.000000
30.125857 1547.000000
30.145339 1543.000000
30.164822 1621.000000
30.184304 1565.000000
30.203786 1588.000000
30.223269 1549.000000
30.242751 1567.000000
30.262233 1570.000000
30.281716 1615.000000
30.301198 1482.000000
30.320681 1566.000000
30.340163 1493.000000
30.359645 1559.000000
30.379128 1598.000000
30.398610 1600.000000
30.418092 1597.000000
30.437575 1588.000000
30.457057 1542.000000
30.476539 1629.000000
30.496022 1549.000000
30.515504 1581.000000
30.534987 1586.000000
30.554469 1561.000000
30.573951 1587.000000
30.593434 1568.000000
30.612916 1602.000000
30.632398 1594.000000
30.651881 1474.000000
30.671363 1627.000000
30.690846 1610.000000
30.710328 1542.000000
30.729810 1604.000000
30.749293 1640.000000
30.768775 1551.000000
30.788257 1594.000000
30.807740 1682.000000
30.827222 1550.000000
30.846704 1687.000000
30.866187 1627.000000
30.885669 1645.000000
30.905152 1680.000000
30.924634 1747.000000
30.944116 1652.000000
30.963599 1700.000000
30.983081 1630.000000
31.002563 1596.000000
31.022046 1629.000000
31.041528 1579.000000
31.061011 1513.000000
31.080493 1576.000000
31.099975 1613.000000
31.119458 1504.000000
31.138940 1616.000000
31.158422 1577.000000
31.177905 1525.000000
31.197387 1604.000000
31.216870 1589.000000
31.236352 1588.000000
31.255834 1552.000000
31.275317 1584.000000
31.294799 1579.000000
31.314281 1526.000000
31.333764 1546.000000
31.353246 1579.000000
31.372728 1581.000000
31.392211 1543.000000
31.411693 1586.000000
31.431176 1486.000000
31.450658 1608.000000
31.470140 1572.000000
31.489623 1573.000000
31.509105 1665.000000
31.528587 1580.000000
31.548070 1574.000000
31.567552 1606.000000
31.587035 1574.000000
31.606517 1602.000000
31.625999 1580.000000
31.645482 1613.000000
31.664964 1598.000000
31.684446 1572.000000
31.703929 1643.000000
31.723411 1571.000000
31.742893 1647.000000
31.762376 1568.000000
31.781858 1551.000000
31.801341 1572.000000
31.820823 1550.000000
31.840305 1631.000000
31.859788 1638.000000
31.879270 1614.000000
31.898752 1609.000000
31.918235 1546.000000
31.937717 1629.000000
31.957200 1594.000000
31.976682 1609.000000
31.996164 1643.000000
32.015647 1656.000000
32.035129 1591.000000
32.054611 1550.000000
32.074094 1619.000000
32.093576 1627.000000
32.113058 1571.000000
32.132541 1607.000000
32.152023 1594.000000
32.171506 1660.000000
32.190988 1661.000000
32.210470 1609.000000
32.229953 1597.000000
32.249435 1602.000000
32.268917 1668.000000
32.288400 1526.000000
32.307882 1651.000000
32.327365 1583.000000
32.346847 1642.000000
32.366329 1610.000000
32.385812 1557.000000
32.405294 1597.000000
32.424776 1538.000000
32.444259 1605.000000
32.463741 1626.000000
32.483223 1606.000000
32.502706 1594.000000
32.522188 1634.000000
32.541671 1657.000000
32.561153 1614.000000
32.580635 1635.000000
32.600118 1682.000000
32.619600 1696.000000
32.639082 1595.000000
32.658565 1638.000000
32.678047 1630.000000
32.697530 1607.000000
32.717012 1662.000000
32.736494 1670.000000
32.755977 1674.000000
32.775459 1665.000000
32.794941 1645.000000
32.814424 1697.000000
32.833906 1686.000000
32.853389 1723.000000
32.872871 1726.000000
32.892353 1720.000000
32.911836 1754.000000
32.931318 1815.000000
32.950800 1919.000000
32.970283 2227.000000
32.989765 3228.000000
33.009247 5338.000000
33.028730 9732.000000
33.048212 12791.000000
33.067695 7167.000000
33.087177 4171.000000
33.106659 5012.000000
33.126142 7148.000000
33.145624 5380.000000
33.165106 2773.000000
33.184589 2218.000000
33.204071 1890.000000
33.223554 1833.000000
33.243036 1822.000000
33.262518 1683.000000
33.282001 1656.000000
33.301483 1692.000000
33.320965 1662.000000
33.340448 1699.000000
33.359930 1705.000000
33.379412 1666.000000
33.398895 1683.000000
33.418377 1691.000000
33.437860 1588.000000
33.457342 1637.000000
33.476824 1689.000000
33.496307 1641.000000
33.515789 1619.000000
33.535271 1741.000000
33.554754 1685.000000
33.574236 1594.000000
33.593719 1630.000000
33.613201 1600.000000
33.632683 1642.000000
33.652166 1538.000000
33.671648 1571.000000
33.691130 1679.000000
33.710613 1673.000000
33.730095 1628.000000
33.749577 1547.000000
33.769060 1585.000000
33.788542 1618.000000
33.808025 1541.000000
33.827507 1698.000000
33.846989 1649.000000
33.866472 1640.000000
33.885954 1699.000000
33.905436 1566.000000
33.924919 1653.000000
33.944401 1615.000000
33.963884 1555.000000
33.983366 1637.000000
34.002848 1588.000000
34.022331 1628.000000
34.041813 1612.000000
34.061295 1641.000000
34.080778 1642.000000
34.100260 1666.000000
34.119742 1616.000000
34.139225 1592.000000
34.158707 1524.000000
34.178190 1661.000000
34.197672 1616.000000
34.217154 1614.000000
34.236637 1622.000000
34.256119 1639.000000
34.275601 1582.000000
34.295084 1553.000000
34.314566 1627.000000
34.334049 1602.000000
34.353531 1601.000000
34.373013 1599.000000
34.392496 1627.000000
34.411978 1610.000000
34.431460 1613.000000
34.450943 1632.000000
34.470425 1606.000000
34.489908 1541.000000
34.509390 1576.000000
34.528872 1631.000000
34.548355 1613.000000
34.567837 1635.000000
34.587319 1627.000000
34.606802 1594.000000
34.626284 1653.000000
34.645766 1591.000000
34.665249 1554.000000
34.684731 1648.000000
34.704214 1624.000000
34.723696 1601.000000
34.743178 1614.000000
34.762661 1661.000000
34.782143 1566.000000
34.801625 1661.000000
34.821108 1651.000000
34.840590 1688.000000
34.860073 1621.000000
34.879555 1524.000000
34.899037 1601.000000
34.918520 1655.000000
34.938002 1613.000000
34.957484 1658.000000
34.976967 1582.000000
34.996449 1501.000000
35.015931 1672.000000
35.035414 1625.000000
35.054896 1645.000000
35.074379 1568.000000
35.093861 1575.000000
35.113343 1685.000000
35.132826 1620.000000
35.152308 1614.000000
35.171790 1672.000000
35.191273 1639.000000
35.210755 1692.000000
35.230238 1545.000000
35.249720 1650.000000
35.269202 1622.000000
35.288685 1625.000000
35.308167 1638.000000
35.327649 1602.000000
35.347132 1590.000000
35.366614 1609.000000
35.386096 1616.000000
35.405579 1671.000000
35.425061 1557.000000
35.444544 1588.000000
35.464026 1657.000000
35.483508 1666.000000
35.502991 1569.000000
35.522473 1611.000000
35.541955 1577.000000
35.561438 1648.000000
35.580920 1632.000000
35.600403 1630.000000
35.619885 1606.000000
35.639367 1596.000000
35.658850 1570.000000
35.678332 1615.000000
35.697814 1654.000000
35.717297 1714.000000
35.736779 1611.000000
35.756261 1638.000000
35.775744 1538.000000
35.795226 1676.000000
35.814709 1627.000000
35.834191 1592.000000
35.853673 1665.000000
35.873156 1730.000000
35.892638 1669.000000
35.912120 1650.000000
35.931603 1650.000000
35.951085 1682.000000
35.970568 1613.000000
35.990050 1696.000000
36.009532 1655.000000
36.029015 1689.000000
36.048497 1625.000000
36.067979 1657.000000
36.087462 1597.000000
36.106944 1593.000000
36.126426 1637.000000
36.145909 1606.000000
36.165391 1677.000000
36.184874 1623.000000
36.204356 1610.000000
36.223838 1604.000000
36.243321 1638.000000
36.262803 1616.000000
36.282285 1701.000000
36.301768 1657.000000
36.321250 1580.000000
36.340733 1640.000000
36.360215 1624.000000
36.379697 1704.000000
36.399180 1631.000000
36.418662 1586.000000
36.438144 1629.000000
36.457627 1637.000000
36.477109 1625.000000
36.496592 1621.000000
36.516074 1594.000000
36.535556 1651.000000
36.555039 1635.000000
36.574521 1629.000000
36.594003 1615.000000
36.613486 1549.000000
36.632968 1691.000000
36.652450 1637.000000
36.671933 1638.000000
36.691415 1645.000000
36.710898 1548.000000
36.730380 1552.000000
36.749862 1607.000000
36.769345 1633.000000
36.788827 1677.000000
36.808309 1587.000000
36.827792 1710.000000
36.847274 1710.000000
36.866757 1616.000000
36.886239 1665.000000
36.905721 1810.000000
36.925204 1735.000000
36.944686 1742.000000
36.964168 1797.000000
36.983651 1782.000000
37.003133 2067.000000
37.022615 2500.000000
37.042098 3351.000000
37.061580 4510.000000
37.081063 5864.000000
37.100545 4657.000000
37.120027 2894.000000
37.139510 2781.000000
37.158992 3264.000000
37.178474 3834.000000
37.197957 3045.000000
37.217439 2087.000000
37.236922 1873.000000
37.256404 1836.000000
37.275886 1712.000000
37.295369 1805.000000
37.314851 1673.000000
37.334333 1690.000000
37.353816 1626.000000
37.373298 1687.000000
37.392780 1619.000000
37.412263 1673.000000
37.431745 1693.000000
37.451228 1655.000000
37.470710 1670.000000
37.490192 1623.000000
37.509675 1683.000000
37.529157 1647.000000
37.548639 1627.000000
37.568122 1656.000000
37.587604 1593.000000
37.607087 1705.000000
37.626569 1593.000000
37.646051 1614.000000
37.665534 1606.000000
37.685016 1626.000000
37.704498 1603.000000
37.723981 1646.000000
37.743463 1628.000000
37.762945 1669.000000
37.782428 1715.000000
37.801910 1692.000000
37.821393 1646.000000
37.840875 1637.000000
37.860357 1621.000000
37.879840 1654.000000
37.899322 1683.000000
37.918804 1624.000000
37.938287 1663.000000
37.957769 1654.000000
37.977252 1639.000000
37.996734 1633.000000
38.016216 1588.000000
38.035699 1620.000000
38.055181 1576.000000
38.074663 1595.000000
38.094146 1604.000000
38.113628 1687.000000
38.133111 1552.000000
38.152593 1702.000000
38.172075 1635.000000
38.191558 1693.000000
38.211040 1591.000000
38.230522 1609.000000
38.250005 1654.000000
38.269487 1678.000000
38.288969 1642.000000
38.308452 1657.000000
38.327934 1641.000000
38.347417 1751.000000
38.366899 1639.000000
38.386381 1633.000000
38.405864 1750.000000
38.425346 1618.000000
38.444828 1663.000000
38.464311 1613.000000
38.483793 1723.000000
38.503276 1697.000000
38.522758 1568.000000
38.542240 1632.000000
38.561723 1653.000000
38.581205 1682.000000
38.600687 1655.000000
38.620170 1641.000000
38.639652 1600.000000
38.659134 1640.000000
38.678617 1618.000000
38.698099 1628.000000
38.717582 1610.000000
38.737064 1696.000000
38.756546 1650.000000
38.776029 1649.000000
38.795511 1722.000000
38.814993 1661.000000
38.834476 1615.000000
38.853958 1617.000000
38.873441 1665.000000
38.892923 1753.000000
38.912405 1677.000000
38.931888 1645.000000
38.951370 1669.000000
38.970852 1696.000000
38.990335 1594.000000
39.009817 1681.000000
39.029299 1730.000000
39.048782 1690.000000
39.068264 1692.000000
39.087747 1623.000000
39.107229 1680.000000
39.126711 1704.000000
39.146194 1680.000000
39.165676 1606.000000
39.185158 1695.000000
39.204641 1676.000000
39.224123 1667.000000
39.243606 1640.000000
39.263088 1614.000000
39.282570 1619.000000
39.302053 1666.000000
39.321535 1661.000000
39.341017 1680.000000
39.360500 1667.000000
39.379982 1607.000000
39.399464 1686.000000
39.418947 1600.000000
39.438429 1744.000000
39.457912 1624.000000
39.477394 1542.000000
39.496876 1651.000000
39.516359 1620.000000
39.535841 1684.000000
39.555323 1674.000000
39.574806 1655.000000
39.594288 1665.000000
39.613771 1656.000000
39.633253 1624.000000
39.652735 1622.000000
39.672218 1705.000000
39.691700 1736.000000
39.711182 1612.000000
39.730665 1671.000000
39.750147 1596.000000
39.769630 1626.000000
39.789112 1617.000000
39.808594 1696.000000
39.828077 1741.000000
39.847559 1644.000000
39.867041 1591.000000
39.886524 1625.000000
39.906006 1701.000000
39.925488 1705.000000
39.944971 1666.000000
39.964453 1637.000000
39.983936 1649.000000
40.003418 1646.000000
40.022900 1667.000000
40.042383 1676.000000
40.061865 1630.000000
40.081347 1662.000000
40.100830 1713.000000
40.120312 1682.000000
40.139795 1644.000000
40.159277 1594.000000
40.178759 1721.000000
40.198242 1641.000000
40.217724 1647.000000
40.237206 1582.000000
40.256689 1672.000000
40.276171 1658.000000
40.295653 1635.000000
40.315136 1688.000000
40.334618 1634.000000
40.354101 1753.000000
40.373583 1672.000000
40.393065 1753.000000
40.412548 1721.000000
40.432030 1723.000000
40.451512 1612.000000
40.470995 1701.000000
40.490477 1677.000000
40.509960 1743.000000
40.529442 1720.000000
40.548924 1704.000000
40.568407 1727.000000
40.587889 1740.000000
40.607371 1799.000000
40.626854 1736.000000
40.646336 1775.000000
40.665818 1878.000000
40.685301 2003.000000
40.704783 2366.000000
40.724266 3086.000000
40.743748 4422.000000
40.763230 5924.000000
40.782713 5475.000000
40.802195 3112.000000
40.821677 2583.000000
40.841160 2817.000000
40.860642 3604.000000
40.880125 3848.000000
40.899607 2731.000000
40.919089 2088.000000
40.938572 1882.000000
40.958054 1830.000000
40.977536 1716.000000
40.997019 1722.000000
41.016501 1785.000000
41.035983 1745.000000
41.055466 1763.000000
41.074948 1809.000000
41.094431 1745.000000
41.113913 1772.000000
41.133395 1691.000000
41.152878 1725.000000
41.172360 1734.000000
41.191842 1727.000000
41.211325 1703.000000
41.230807 1783.000000
41.250290 1652.000000
41.269772 1749.000000
41.289254 1735.000000
41.308737 1681.000000
41.328219 1705.000000
41.347701 1648.000000
41.367184 1656.000000
41.386666 1731.000000
41.406149 1714.000000
41.425631 1696.000000
41.445113 1624.000000
41.464596 1679.000000
41.484078 1693.000000
41.503560 1703.000000
41.523043 1769.000000
41.542525 1733.000000
41.562007 1632.000000
41.581490 1695.000000
41.600972 1665.000000
41.620455 1663.000000
41.639937 1648.000000
41.659419 1694.000000
41.678902 1685.000000
41.698384 1683.000000
41.717866 1719.000000
41.737349 1762.000000
41.756831 1602.000000
41.776314 1701.000000
41.795796 1644.000000
41.815278 1713.000000
41.834761 1628.000000
41.854243 1636.000000
41.873725 1733.000000
41.893208 1670.000000
41.912690 1642.000000
41.932172 1655.000000
41.951655 1745.000000
41.971137 1654.000000
41.990620 1723.000000
42.010102 1683.000000
42.029584 1679.000000
42.049067 1637.000000
42.068549 1732.000000
42.088031 1730.000000
42.107514 1742.000000
42.126996 1735.000000
42.146479 1737.000000
42.165961 1697.000000
42.185443 1719.000000
42.204926 1676.000000
42.224408 1661.000000
42.243890 1626.000000
42.263373 1727.000000
42.282855 1597.000000
42.302337 1637.000000
42.321820 1598.000000
42.341302 1668.000000
42.360785 1674.000000
42.380267 1637.000000
42.399749 1716.000000
42.419232 1697.000000
42.438714 1706.000000
42.458196 1715.000000
42.477679 1673.000000
42.497161 1669.000000
42.516644 1704.000000
42.536126 1686.000000
42.555608 1657.000000
42.575091 1676.000000
42.594573 1733.000000
42.614055 1706.000000
42.633538 1696.000000
42.653020 1698.000000
42.672502 1762.000000
42.691985 1708.000000
42.711467 1677.000000
42.730950 1739.000000
42.750432 1661.000000
42.769914 1609.000000
42.789397 1718.000000
42.808879 1676.000000
42.828361 1671.000000
42.847844 1746.000000
42.867326 1716.000000
42.886809 1687.000000
42.906291 1649.000000
42.925773 1789.000000
42.945256 1675.000000
42.964738 1732.000000
42.984220 1621.000000
43.003703 1652.000000
43.023185 1668.000000
43.042667 1700.000000
43.062150 1672.000000
43.081632 1683.000000
43.101115 1647.000000
43.120597 1746.000000
43.140079 1722.000000
43.159562 1625.000000
43.179044 1687.000000
43.198526 1670.000000
43.218009 1717.000000
43.237491 1676.000000
43.256974 1631.000000
43.276456 1661.000000
43.295938 1605.000000
43.315421 1696.000000
43.334903 1779.000000
43.354385 1703.000000
43.373868 1746.000000
43.393350 1742.000000
43.412833 1750.000000
43.432315 1695.000000
43.451797 1656.000000
43.471280 1620.000000
43.490762 1672.000000
43.510244 1665.000000
43.529727 1684.000000
43.549209 1710.000000
43.568691 1651.000000
43.588174 1678.000000
43.607656 1742.000000
43.627139 1702.000000
43.646621 1717.000000
43.666103 1699.000000
43.685586 1691.000000
43.705068 1742.000000
43.724550 1713.000000
43.744033 1701.000000
43.763515 1695.000000
43.782998 1619.000000
43.802480 1628.000000
43.821962 1683.000000
43.841445 1712.000000
43.860927 1693.000000
43.880409 1724.000000
43.899892 1722.000000
43.919374 1662.000000
43.938856 1689.000000
43.958339 1604.000000
43.977821 1685.000000
43.997304 1724.000000
44.016786 1745.000000
44.036268 1696.000000
44.055751 1608.000000
44.075233 1656.000000
44.094715 1619.000000
44.114198 1680.000000
44.133680 1653.000000
44.153163 1723.000000
44.172645 1676.000000
44.192127 1629.000000
44.211610 1696.000000
44.231092 1737.000000
44.250574 1665.000000
44.270057 1702.000000
44.289539 1682.000000
44.309021 1658.000000
44.328504 1696.000000
44.347986 1768.000000
44.367469 1701.000000
44.386951 1681.000000
44.406433 1664.000000
44.425916 1614.000000
44.445398 1609.000000
44.464880 1680.000000
44.484363 1671.000000
44.503845 1672.000000
44.523328 1685.000000
44.542810 1717.000000
44.562292 1619.000000
44.581775 1751.000000
44.601257 1652.000000
44.620739 1694.000000
44.640222 1706.000000
44.659704 1733.000000
44.679186 1708.000000
44.698669 1711.000000
44.718151 1694.000000
44.737634 1719.000000
44.757116 1690.000000
44.776598 1681.000000
44.796081 1713.000000
44.815563 1639.000000
44.835045 1675.000000
44.854528 1724.000000
44.874010 1743.000000
44.893493 1732.000000
44.912975 1746.000000
44.932457 1678.000000
44.951940 1738.000000
44.971422 1688.000000
44.990904 1683.000000
45.010387 1652.000000
45.029869 1677.000000
45.049352 1744.000000
45.068834 1686.000000
45.088316 1685.000000
45.107799 1697.000000
45.127281 1675.000000
45.146763 1736.000000
45.166246 1682.000000
45.185728 1738.000000
45.205210 1817.000000
45.224693 1756.000000
45.244175 1744.000000
45.263658 1722.000000
45.283140 1654.000000
45.302622 1744.000000
45.322105 1697.000000
45.341587 1778.000000
45.361069 1677.000000
45.380552 1704.000000
45.400034 1737.000000
45.419517 1693.000000
45.438999 1706.000000
45.458481 1708.000000
45.477964 1698.000000
45.497446 1643.000000
45.516928 1667.000000
45.536411 1723.000000
45.555893 1594.000000
45.575375 1740.000000
45.594858 1662.000000
45.614340 1677.000000
45.633823 1766.000000
45.653305 1808.000000
45.672787 1677.000000
45.692270 1709.000000
45.711752 1696.000000
45.731234 1721.000000
45.750717 1680.000000
45.770199 1673.000000
45.789682 1694.000000
45.809164 1666.000000
45.828646 1697.000000
45.848129 1608.000000
45.867611 1661.000000
45.887093 1717.000000
45.906576 1687.000000
45.926058 1697.000000
45.945540 1729.000000
45.965023 1565.000000
45.984505 1658.000000
46.003988 1794.000000
46.023470 1603.000000
46.042952 1735.000000
46.062435 1687.000000
46.081917 1698.000000
46.101399 1692.000000
46.120882 1692.000000
46.140364 1687.000000
46.159847 1703.000000
46.179329 1637.000000
46.198811 1704.000000
46.218294 1632.000000
46.237776 1746.000000
46.257258 1666.000000
46.276741 1745.000000
46.296223 1731.000000
46.315705 1749.000000
46.335188 1720.000000
46.354670 1772.000000
46.374153 1708.000000
46.393635 1741.000000
46.413117 1755.000000
46.432600 1702.000000
46.452082 1686.000000
46.471564 1692.000000
46.491047 1750.000000
46.510529 1615.000000
46.530012 1702.000000
46.549494 1766.000000
46.568976 1703.000000
46.588459 1681.000000
46.607941 1774.000000
46.627423 1745.000000
46.646906 1698.000000
46.666388 1673.000000
46.685871 1763.000000
46.705353 1786.000000
46.724835 1657.000000
46.744318 1721.000000
46.763800 1793.000000
46.783282 1633.000000
46.802765 1629.000000
46.822247 1769.000000
46.841729 1692.000000
46.861212 1727.000000
46.880694 1766.000000
46.900177 1787.000000
46.919659 1650.000000
46.939141 1742.000000
46.958624 1743.000000
46.978106 1642.000000
46.997588 1745.000000
47.017071 1708.000000
47.036553 1725.000000
47.056036 1760.000000
47.075518 1804.000000
47.095000 1779.000000
47.114483 1831.000000
47.133965 1790.000000
47.153447 1792.000000
47.172930 1786.000000
47.192412 1696.000000
47.211894 1805.000000
47.231377 1805.000000
47.250859 1781.000000
47.270342 1803.000000
47.289824 1954.000000
47.309306 1812.000000
47.328789 1913.000000
47.348271 2044.000000
47.367753 2213.000000
47.387236 2726.000000
47.406718 3656.000000
47.426201 4696.000000
47.445683 4448.000000
47.465165 3336.000000
47.484648 2359.000000
47.504130 2337.000000
47.523612 2518.000000
47.543095 3095.000000
47.562577 3151.000000
47.582059 2801.000000
47.601542 2246.000000
47.621024 1924.000000
47.640507 1955.000000
47.659989 1830.000000
47.679471 1762.000000
47.698954 1740.000000
47.718436 1723.000000
47.737918 1801.000000
47.757401 1746.000000
47.776883 1779.000000
47.796366 1746.000000
47.815848 1707.000000
47.835330 1781.000000
47.854813 1779.000000
47.874295 1858.000000
47.893777 1709.000000
47.913260 1810.000000
47.932742 1673.000000
47.952224 1760.000000
47.971707 1757.000000
47.991189 1746.000000
48.010672 1687.000000
48.030154 1753.000000
48.049636 1720.000000
48.069119 1669.000000
48.088601 1771.000000
48.108083 1689.000000
48.127566 1770.000000
48.147048 1731.000000
48.166531 1688.000000
48.186013 1696.000000
48.205495 1610.000000
48.224978 1764.000000
48.244460 1736.000000
48.263942 1713.000000
48.283425 1727.000000
48.302907 1756.000000
48.322389 1740.000000
48.341872 1734.000000
48.361354 1762.000000
48.380837 1702.000000
48.400319 1774.000000
48.419801 1838.000000
48.439284 1733.000000
48.458766 1759.000000
48.478248 1709.000000
48.497731 1703.000000
48.517213 1751.000000
48.536696 1745.000000
48.556178 1693.000000
48.575660 1752.000000
48.595143 1685.000000
48.614625 1718.000000
48.634107 1786.000000
48.653590 1683.000000
48.673072 1744.000000
48.692555 1784.000000
48.712037 1774.000000
48.731519 1760.000000
48.751002 1738.000000
48.770484 1724.000000
48.789966 1766.000000
48.809449 1823.000000
48.828931 1672.000000
48.848413 1725.000000
48.867896 1775.000000
48.887378 1694.000000
48.906861 1687.000000
48.926343 1693.000000
48.945825 1791.000000
48.965308 1715.000000
48.984790 1726.000000
49.004272 1720.000000
49.023755 1792.000000
49.043237 1625.000000
49.062720 1739.000000
49.082202 1726.000000
49.101684 1758.000000
49.121167 1732.000000
49.140649 1732.000000
49.160131 1719.000000
49.179614 1836.000000
49.199096 1681.000000
49.218578 1743.000000
49.238061 1717.000000
49.257543 1709.000000
49.277026 1688.000000
49.296508 1763.000000
49.315990 1740.000000
49.335473 1790.000000
49.354955 1697.000000
49.374437 1696.000000
49.393920 1730.000000
49.413402 1721.000000
49.432885 1709.000000
49.452367 1628.000000
49.471849 1705.000000
49.491332 1766.000000
49.510814 1730.000000
49.530296 1786.000000
49.549779 1777.000000
49.569261 1762.000000
49.588743 1725.000000
49.608226 1752.000000
49.627708 1747.000000
49.647191 1744.000000
49.666673 1726.000000
49.686155 1632.000000
49.705638 1726.000000
49.725120 1734.000000
49.744602 1638.000000
49.764085 1701.000000
49.783567 1812.000000
49.803050 1758.000000
49.822532 1738.000000
49.842014 1796.000000
49.861497 1711.000000
49.880979 1770.000000
49.900461 1665.000000
49.919944 1696.000000
49.939426 1675.000000
49.958908 1713.000000
49.978391 1794.000000
49.997873 1719.000000
50.017356 1843.000000
50.036838 1700.000000
50.056320 1707.000000
50.075803 1739.000000
50.095285 1782.000000
50.114767 1730.000000
50.134250 1675.000000
50.153732 1769.000000
50.173215 1720.000000
50.192697 1692.000000
50.212179 1690.000000
50.231662 1758.000000
50.251144 1755.000000
50.270626 1763.000000
50.290109 1752.000000
50.309591 1794.000000
50.329074 1778.000000
50.348556 1823.000000
50.368038 1767.000000
50.387521 1808.000000
50.407003 1728.000000
50.426485 1788.000000
50.445968 1794.000000
50.465450 1886.000000
50.484932 1813.000000
50.504415 1708.000000
50.523897 1782.000000
50.543380 1740.000000
50.562862 1827.000000
50.582344 1812.000000
50.601827 1732.000000
50.621309 1691.000000
50.640791 1757.000000
50.660274 1724.000000
50.679756 1772.000000
50.699239 1797.000000
50.718721 1716.000000
50.738203 1716.000000
50.757686 1787.000000
50.777168 1789.000000
50.796650 1761.000000
50.816133 1775.000000
50.835615 1741.000000
50.855097 1761.000000
50.874580 1746.000000
50.894062 1761.000000
50.913545 1721.000000
50.933027 1778.000000
50.952509 1735.000000
50.971992 1805.000000
50.991474 1779.000000
51.010956 1678.000000
51.030439 1800.000000
51.049921 1771.000000
51.069404 1748.000000
51.088886 1720.000000
51.108368 1722.000000
51.127851 1748.000000
51.147333 1783.000000
51.166815 1793.000000
51.186298 1705.000000
51.205780 1800.000000
51.225262 1777.000000
51.244745 1724.000000
51.264227 1754.000000
51.283710 1666.000000
51.303192 1751.000000
51.322674 1733.000000
51.342157 1763.000000
51.361639 1755.000000
51.381121 1725.000000
51.400604 1814.000000
51.420086 1827.000000
51.439569 1751.000000
51.459051 1748.000000
51.478533 1712.000000
51.498016 1728.000000
51.517498 1819.000000
51.536980 1694.000000
51.556463 1719.000000
51.575945 1757.000000
51.595427 1715.000000
51.614910 1734.000000
51.634392 1742.000000
51.653875 1761.000000
51.673357 1698.000000
51.692839 1730.000000
51.712322 1751.000000
51.731804 1766.000000
51.751286 1772.000000
51.770769 1622.000000
51.790251 1731.000000
51.809734 1742.000000
51.829216 1726.000000
51.848698 1816.000000
51.868181 1769.000000
51.887663 1740.000000
51.907145 1752.000000
51.926628 1696.000000
51.946110 1775.000000
51.965593 1754.000000
51.985075 1801.000000
52.004557 1705.000000
52.024040 1766.000000
52.043522 1742.000000
52.063004 1708.000000
52.082487 1729.000000
52.101969 1762.000000
52.121451 1660.000000
52.140934 1761.000000
52.160416 1788.000000
52.179899 1799.000000
52.199381 1820.000000
52.218863 1726.000000
52.238346 1720.000000
52.257828 1685.000000
52.277310 1682.000000
52.296793 1758.000000
52.316275 1648.000000
52.335758 1729.000000
52.355240 1837.000000
52.374722 1760.000000
52.394205 1764.000000
52.413687 1822.000000
52.433169 1802.000000
52.452652 1750.000000
52.472134 1873.000000
52.491616 1814.000000
52.511099 1727.000000
52.530581 1734.000000
52.550064 1751.000000
52.569546 1733.000000
52.589028 1787.000000
52.608511 1793.000000
52.627993 1800.000000
52.647475 1841.000000
52.666958 1730.000000
52.686440 1773.000000
52.705923 1855.000000
52.725405 1806.000000
52.744887 1753.000000
52.764370 1873.000000
52.783852 1769.000000
52.803334 1740.000000
52.822817 1755.000000
52.842299 1867.000000
52.861781 1721.000000
52.881264 1814.000000
52.900746 1822.000000
52.920229 1730.000000
52.939711 1633.000000
52.959193 1733.000000
52.978676 1703.000000
52.998158 1786.000000
53.017640 1757.000000
53.037123 1776.000000
53.056605 1713.000000
53.076088 1796.000000
53.095570 1763.000000
53.115052 1663.000000
53.134535 1744.000000
53.154017 1790.000000
53.173499 1736.000000
53.192982 1721.000000
53.212464 1812.000000
53.231946 1732.000000
53.251429 1776.000000
53.270911 1735.000000
53.290394 1651.000000
53.309876 1830.000000
53.329358 1717.000000
53.348841 1852.000000
53.368323 1785.000000
53.387805 1772.000000
53.407288 1778.000000
53.426770 1713.000000
53.446253 1791.000000
53.465735 1738.000000
53.485217 1744.000000
53.504700 1789.000000
53.524182 1748.000000
53.543664 1818.000000
53.563147 1790.000000
53.582629 1720.000000
53.602112 1718.000000
53.621594 1715.000000
53.641076 1737.000000
53.660559 1750.000000
53.680041 1822.000000
53.699523 1747.000000
53.719006 1758.000000
53.738488 1700.000000
53.757970 1802.000000
53.777453 1832.000000
53.796935 1777.000000
53.816418 1729.000000
53.835900 1713.000000
53.855382 1763.000000
53.874865 1840.000000
53.894347 1790.000000
53.913829 1753.000000
53.933312 1711.000000
53.952794 1810.000000
53.972277 1775.000000
53.991759 1774.000000
54.011241 1770.000000
54.030724 1772.000000
54.050206 1746.000000
54.069688 1823.000000
54.089171 1756.000000
54.108653 1704.000000
54.128135 1852.000000
54.147618 1761.000000
54.167100 1821.000000
54.186583 1723.000000
54.206065 1802.000000
54.225547 1815.000000
54.245030 1780.000000
54.264512 1812.000000
54.283994 1753.000000
54.303477 1698.000000
54.322959 1716.000000
54.342442 1783.000000
54.361924 1740.000000
54.381406 1730.000000
54.400889 1731.000000
54.420371 1780.000000
54.439853 1773.000000
54.459336 1766.000000
54.478818 1819.000000
54.498300 1746.000000
54.517783 1719.000000
54.537265 1754.000000
54.556748 1875.000000
54.576230 1758.000000
54.595712 1769.000000
54.615195 1810.000000
54.634677 1763.000000
54.654159 1867.000000
54.673642 1793.000000
54.693124 1780.000000
54.712607 1742.000000
54.732089 1826.000000
54.751571 1775.000000
54.771054 1765.000000
54.790536 1756.000000
54.810018 1703.000000
54.829501 1709.000000
54.848983 1750.000000
54.868465 1725.000000
54.887948 1843.000000
54.907430 1824.000000
54.926913 1878.000000
54.946395 1747.000000
54.965877 1751.000000
54.985360 1794.000000
55.004842 1814.000000
55.024324 1803.000000
55.043807 1762.000000
55.063289 1876.000000
55.082772 1804.000000
55.102254 1763.000000
55.121736 1770.000000
55.141219 1785.000000
55.160701 1869.000000
55.180183 1776.000000
55.199666 1843.000000
55.219148 1753.000000
55.238630 1839.000000
55.258113 1774.000000
55.277595 1808.000000
55.297078 1764.000000
55.316560 1802.000000
55.336042 1739.000000
55.355525 1854.000000
55.375007 1765.000000
55.394489 1778.000000
55.413972 1810.000000
55.433454 1764.000000
55.452937 1819.000000
55.472419 1787.000000
55.491901 1827.000000
55.511384 1798.000000
55.530866 1805.000000
55.550348 1797.000000
55.569831 1793.000000
55.589313 1828.000000
55.608796 1793.000000
55.628278 1740.000000
55.647760 1780.000000
55.667243 1765.000000
55.686725 1751.000000
55.706207 1816.000000
55.725690 1851.000000
55.745172 1775.000000
55.764654 1769.000000
55.784137 1886.000000
55.803619 1829.000000
55.823102 1790.000000
55.842584 1878.000000
55.862066 1754.000000
55.881549 1833.000000
55.901031 1835.000000
55.920513 1832.000000
55.939996 1793.000000
55.959478 1869.000000
55.978961 1902.000000
55.998443 1844.000000
56.017925 1814.000000
56.037408 1974.000000
56.056890 1912.000000
56.076372 1984.000000
56.095855 1986.000000
56.115337 1982.000000
56.134819 2058.000000
56.154302 2170.000000
56.173784 2311.000000
56.193267 2694.000000
56.212749 3611.000000
56.232231 5226.000000
56.251714 6781.000000
56.271196 8344.000000
56.290678 7514.000000
56.310161 4687.000000
56.329643 3241.000000
56.349126 2854.000000
56.368608 3191.000000
56.388090 3871.000000
56.407573 4660.000000
56.427055 5059.000000
56.446537 4388.000000
56.466020 3139.000000
56.485502 2482.000000
56.504984 2163.000000
56.524467 2075.000000
56.543949 1981.000000
56.563432 1893.000000
56.582914 1961.000000
56.602396 1892.000000
56.621879 1855.000000
56.641361 1837.000000
56.660843 1811.000000
56.680326 1936.000000
56.699808 1906.000000
56.719291 1845.000000
56.738773 1824.000000
56.758255 1844.000000
56.777738 1797.000000
56.797220 1791.000000
56.816702 1799.000000
56.836185 1839.000000
56.855667 1783.000000
56.875149 1795.000000
56.894632 1865.000000
56.914114 1919.000000
56.933597 1832.000000
56.953079 1852.000000
56.972561 1804.000000
56.992044 1835.000000
57.011526 1912.000000
57.031008 1828.000000
57.050491 1836.000000
57.069973 1775.000000
57.089456 1766.000000
57.108938 1775.000000
57.128420 1776.000000
57.147903 1827.000000
57.167385 1867.000000
57.186867 1782.000000
57.206350 1821.000000
57.225832 1849.000000
57.245315 1749.000000
57.264797 1868.000000
57.284279 1809.000000
57.303762 1699.000000
57.323244 1768.000000
57.342726 1787.000000
57.362209 1824.000000
57.381691 1842.000000
57.401173 1795.000000
57.420656 1775.000000
57.440138 1874.000000
57.459621 1725.000000
57.479103 1852.000000
57.498585 1775.000000
57.518068 1837.000000
57.537550 1846.000000
57.557032 1780.000000
57.576515 1746.000000
57.595997 1754.000000
57.615480 1805.000000
57.634962 1728.000000
57.654444 1798.000000
57.673927 1737.000000
57.693409 1765.000000
57.712891 1771.000000
57.732374 1792.000000
57.751856 1833.000000
57.771338 1760.000000
57.790821 1898.000000
57.810303 1856.000000
57.829786 1872.000000
57.849268 1794.000000
57.868750 1726.000000
57.888233 1829.000000
57.907715 1753.000000
57.927197 1792.000000
57.946680 1789.000000
57.966162 1815.000000
57.985645 1801.000000
58.005127 1751.000000
58.024609 1740.000000
58.044092 1844.000000
58.063574 1864.000000
58.083056 1723.000000
58.102539 1813.000000
58.122021 1850.000000
58.141503 1818.000000
58.160986 1888.000000
58.180468 1836.000000
58.199951 1826.000000
58.219433 1809.000000
58.238915 1838.000000
58.258398 1864.000000
58.277880 1820.000000
58.297362 1814.000000
58.316845 1785.000000
58.336327 1789.000000
58.355810 1743.000000
58.375292 1725.000000
58.394774 1863.000000
58.414257 1808.000000
58.433739 1821.000000
58.453221 1763.000000
58.472704 1917.000000
58.492186 1789.000000
58.511668 1779.000000
58.531151 1720.000000
58.550633 1856.000000
58.570116 1825.000000
58.589598 1793.000000
58.609080 1774.000000
58.628563 1765.000000
58.648045 1825.000000
58.667527 1782.000000
58.687010 1827.000000
58.706492 1808.000000
58.725975 1801.000000
58.745457 1808.000000
58.764939 1793.000000
58.784422 1834.000000
58.803904 1734.000000
58.823386 1784.000000
58.842869 1810.000000
58.862351 1791.000000
58.881834 1885.000000
58.901316 1856.000000
58.920798 1860.000000
58.940281 1828.000000
58.959763 1985.000000
58.979245 2216.000000
58.998728 2444.000000
59.018210 2594.000000
59.037692 2465.000000
59.057175 2083.000000
59.076657 1994.000000
59.096140 1980.000000
59.115622 1870.000000
59.135104 1994.000000
59.154587 2051.000000
59.174069 2146.000000
59.193551 2221.000000
59.213034 2047.000000
59.232516 1845.000000
59.251999 1836.000000
59.271481 1860.000000
59.290963 1787.000000
59.310446 1831.000000
59.329928 1801.000000
59.349410 1781.000000
59.368893 1816.000000
59.388375 1851.000000
59.407857 1776.000000
59.427340 1769.000000
59.446822 1855.000000
59.466305 1821.000000
59.485787 1809.000000
59.505269 1804.000000
59.524752 1847.000000
59.544234 1816.000000
59.563716 1814.000000
59.583199 1819.000000
59.602681 1830.000000
59.622164 1868.000000
59.641646 1907.000000
59.661128 1804.000000
59.680611 1826.000000
59.700093 1852.000000
59.719575 1874.000000
59.739058 1786.000000
59.758540 1882.000000
59.778022 1785.000000
59.797505 1781.000000
59.816987 1863.000000
59.836470 1829.000000
59.855952 1707.000000
59.875434 1840.000000
59.894917 1791.000000
59.914399 1838.000000
59.933881 1803.000000
59.953364 1830.000000
59.972846 1804.000000
59.992329 1874.000000
60.011811 1791.000000
60.031293 1781.000000
60.050776 1787.000000
60.070258 1832.000000
60.089740 1823.000000
60.109223 1808.000000
60.128705 1843.000000
60.148187 1836.000000
60.167670 1782.000000
60.187152 1855.000000
60.206635 1781.000000
60.226117 1774.000000
60.245599 1808.000000
60.265082 1839.000000
60.284564 1748.000000
60.304046 1729.000000
60.323529 1815.000000
60.343011 1801.000000
60.362494 1808.000000
60.381976 1823.000000
60.401458 1823.000000
60.420941 1780.000000
60.440423 1885.000000
60.459905 1849.000000
60.479388 1801.000000
60.498870 1779.000000
60.518352 1881.000000
60.537835 1826.000000
60.557317 1829.000000
60.576800 1878.000000
60.596282 1899.000000
60.615764 1804.000000
60.635247 1850.000000
60.654729 1799.000000
60.674211 1828.000000
60.693694 1911.000000
60.713176 1844.000000
60.732659 1808.000000
60.752141 1760.000000
60.771623 1878.000000
60.791106 1763.000000
60.810588 1834.000000
60.830070 1726.000000
60.849553 1904.000000
60.869035 1858.000000
60.888518 1786.000000
60.908000 1864.000000
60.927482 1819.000000
60.946965 1803.000000
60.966447 1819.000000
60.985929 1826.000000
61.005412 1828.000000
61.024894 1855.000000
61.044376 1842.000000
61.063859 1744.000000
61.083341 1802.000000
61.102824 1778.000000
61.122306 1839.000000
61.141788 1841.000000
61.161271 1747.000000
61.180753 1778.000000
61.200235 1811.000000
61.219718 1828.000000
61.239200 1818.000000
61.258683 1855.000000
61.278165 1843.000000
61.297647 1867.000000
61.317130 1777.000000
61.336612 1825.000000
61.356094 1768.000000
61.375577 1809.000000
61.395059 1752.000000
61.414541 1816.000000
61.434024 1809.000000
61.453506 1838.000000
61.472989 1805.000000
61.492471 1812.000000
61.511953 1890.000000
61.531436 1919.000000
61.550918 1850.000000
61.570400 1871.000000
61.589883 2038.000000
61.609365 2082.000000
61.628848 2314.000000
61.648330 2670.000000
61.667812 3380.000000
61.687295 4167.000000
61.706777 3832.000000
61.726259 2913.000000
61.745742 2390.000000
61.765224 2073.000000
61.784706 2077.000000
61.804189 2129.000000
61.823671 2401.000000
61.843154 2709.000000
61.862636 3013.000000
61.882118 2668.000000
61.901601 2348.000000
61.921083 2045.000000
61.940565 1930.000000
61.960048 1938.000000
61.979530 1881.000000
61.999013 1811.000000
62.018495 1835.000000
62.037977 1940.000000
62.057460 1817.000000
62.076942 1794.000000
62.096424 1849.000000
62.115907 1777.000000
62.135389 1862.000000
62.154871 1902.000000
62.174354 1895.000000
62.193836 1904.000000
62.213319 1812.000000
62.232801 1803.000000
62.252283 1828.000000
62.271766 1828.000000
62.291248 1849.000000
62.310730 1763.000000
62.330213 1892.000000
62.349695 1854.000000
62.369178 1871.000000
62.388660 1770.000000
62.408142 1921.000000
62.427625 1835.000000
62.447107 1842.000000
62.466589 1819.000000
62.486072 1938.000000
62.505554 1851.000000
62.525037 1782.000000
62.544519 1809.000000
62.564001 1864.000000
62.583484 1897.000000
62.602966 1848.000000
62.622448 1846.000000
62.641931 1863.000000
62.661413 1837.000000
62.680895 1835.000000
62.700378 1864.000000
62.719860 1857.000000
62.739343 1786.000000
62.758825 1857.000000
62.778307 1802.000000
62.797790 1895.000000
62.817272 1769.000000
62.836754 1797.000000
62.856237 1789.000000
62.875719 1751.000000
62.895202 1855.000000
62.914684 1776.000000
62.934166 1785.000000
62.953649 1832.000000
62.973131 1832.000000
62.992613 1799.000000
63.012096 1812.000000
63.031578 1872.000000
63.051060 1792.000000
63.070543 1914.000000
63.090025 1834.000000
63.109508 1858.000000
63.128990 1842.000000
63.148472 1852.000000
63.167955 1850.000000
63.187437 1750.000000
63.206919 1816.000000
63.226402 1835.000000
63.245884 1821.000000
63.265367 1738.000000
63.284849 1826.000000
63.304331 1831.000000
63.323814 1906.000000
63.343296 1867.000000
63.362778 1884.000000
63.382261 1850.000000
63.401743 1930.000000
63.421225 1791.000000
63.440708 1781.000000
63.460190 1884.000000
63.479673 1852.000000
63.499155 1890.000000
63.518637 1851.000000
63.538120 1817.000000
63.557602 1843.000000
63.577084 1823.000000
63.596567 1921.000000
63.616049 1861.000000
63.635532 1864.000000
63.655014 1819.000000
63.674496 1875.000000
63.693979 1799.000000
63.713461 1857.000000
63.732943 1791.000000
63.752426 1803.000000
63.771908 1807.000000
63.791390 1791.000000
63.810873 1814.000000
63.830355 1858.000000
63.849838 1846.000000
63.869320 1797.000000
63.888802 1820.000000
63.908285 1880.000000
63.927767 1863.000000
63.947249 1823.000000
63.966732 1933.000000
63.986214 1901.000000
64.005697 1826.000000
64.025179 1916.000000
64.044661 1879.000000
64.064144 1827.000000
64.083626 1873.000000
64.103108 1837.000000
64.122591 1855.000000
64.142073 1902.000000
64.161556 1925.000000
64.181038 2030.000000
64.200520 2052.000000
64.220003 2242.000000
64.239485 2482.000000
64.258967 2733.000000
64.278450 3533.000000
64.297932 3643.000000
64.317414 2959.000000
64.336897 2456.000000
64.356379 2183.000000
64.375862 2043.000000
64.395344 2069.000000
64.414826 2203.000000
64.434309 2327.000000
64.453791 2596.000000
64.473273 2818.000000
64.492756 2422.000000
64.512238 2103.000000
64.531721 1995.000000
64.551203 1879.000000
64.570685 1982.000000
64.590168 1899.000000
64.609650 1910.000000
64.629132 1932.000000
64.648615 1955.000000
64.668097 1769.000000
64.687579 1833.000000
64.707062 1792.000000
64.726544 1812.000000
64.746027 1817.000000
64.765509 1873.000000
64.784991 1887.000000
64.804474 1876.000000
64.823956 1904.000000
64.843438 1769.000000
64.862921 1901.000000
64.882403 1949.000000
64.901886 1843.000000
64.921368 1796.000000
64.940850 1888.000000
64.960333 1875.000000
64.979815 1823.000000
64.999297 1862.000000
65.018780 1852.000000
65.038262 1771.000000
65.057744 1875.000000
65.077227 1901.000000
65.096709 1823.000000
65.116192 1820.000000
65.135674 1894.000000
65.155156 1901.000000
65.174639 1856.000000
65.194121 1872.000000
65.213603 1827.000000
65.233086 1830.000000
65.252568 1914.000000
65.272051 1822.000000
65.291533 1804.000000
65.311015 1916.000000
65.330498 1872.000000
65.349980 1888.000000
65.369462 1865.000000
65.388945 1853.000000
65.408427 1889.000000
65.427909 1808.000000
65.447392 1868.000000
65.466874 1818.000000
65.486357 1837.000000
65.505839 1863.000000
65.525321 1819.000000
65.544804 1902.000000
65.564286 1850.000000
65.583768 1841.000000
65.603251 1802.000000
65.622733 1787.000000
65.642216 1937.000000
65.661698 1880.000000
65.681180 1808.000000
65.700663 1822.000000
65.720145 1899.000000
65.739627 1870.000000
65.759110 1941.000000
65.778592 1826.000000
65.798075 1858.000000
65.817557 1803.000000
65.837039 1839.000000
65.856522 1868.000000
65.876004 1859.000000
65.895486 1858.000000
65.914969 1869.000000
65.934451 1953.000000
65.953933 1789.000000
65.973416 1827.000000
65.992898 1836.000000
66.012381 1904.000000
66.031863 1866.000000
66.051345 1860.000000
66.070828 1914.000000
66.090310 1815.000000
66.109792 1860.000000
66.129275 1841.000000
66.148757 1877.000000
66.168240 1827.000000
66.187722 1852.000000
66.207204 1801.000000
66.226687 1814.000000
66.246169 1847.000000
66.265651 1890.000000
66.285134 1838.000000
66.304616 1876.000000
66.324098 1784.000000
66.343581 1851.000000
66.363063 1820.000000
66.382546 1910.000000
66.402028 1840.000000
66.421510 1914.000000
66.440993 1918.000000
66.460475 1843.000000
66.479957 1950.000000
66.499440 1870.000000
66.518922 1951.000000
66.538405 1809.000000
66.557887 1863.000000
66.577369 1843.000000
66.596852 1907.000000
66.616334 1914.000000
66.635816 1941.000000
66.655299 1899.000000
66.674781 1874.000000
66.694263 1835.000000
66.713746 1898.000000
66.733228 1928.000000
66.752711 1792.000000
66.772193 1850.000000
66.791675 1847.000000
66.811158 1895.000000
66.830640 1877.000000
66.850122 1879.000000
66.869605 1883.000000
66.889087 1839.000000
66.908570 1878.000000
66.928052 1792.000000
66.947534 1894.000000
66.967017 1896.000000
66.986499 1913.000000
67.005981 1807.000000
67.025464 1953.000000
67.044946 1979.000000
67.064428 1856.000000
67.083911 1863.000000
67.103393 1812.000000
67.122876 1871.000000
67.142358 1804.000000
67.161840 1886.000000
67.181323 1918.000000
67.200805 1825.000000
67.220287 1790.000000
67.239770 1859.000000
67.259252 1900.000000
67.278735 1872.000000
67.298217 1782.000000
67.317699 1853.000000
67.337182 1883.000000
67.356664 1823.000000
67.376146 1859.000000
67.395629 1880.000000
67.415111 1910.000000
67.434593 1927.000000
67.454076 1837.000000
67.473558 1870.000000
67.493041 1871.000000
67.512523 1906.000000
67.532005 1886.000000
67.551488 1837.000000
67.570970 1901.000000
67.590452 1857.000000
67.609935 1916.000000
67.629417 1837.000000
67.648900 1853.000000
67.668382 1883.000000
67.687864 1809.000000
67.707347 1911.000000
67.726829 1887.000000
67.746311 1827.000000
67.765794 1832.000000
67.785276 1863.000000
67.804759 1882.000000
67.824241 1907.000000
67.843723 1839.000000
67.863206 1808.000000
67.882688 1903.000000
67.902170 1823.000000
67.921653 1776.000000
67.941135 1890.000000
67.960617 1903.000000
67.980100 1862.000000
67.999582 1760.000000
68.019065 1777.000000
68.038547 1827.000000
68.058029 1918.000000
68.077512 1887.000000
68.096994 1849.000000
68.116476 1877.000000
68.135959 1903.000000
68.155441 1880.000000
68.174924 1786.000000
68.194406 1922.000000
68.213888 1821.000000
68.233371 1779.000000
68.252853 1837.000000
68.272335 1849.000000
68.291818 1790.000000
68.311300 1885.000000
68.330782 1881.000000
68.350265 1870.000000
68.369747 1885.000000
68.389230 1945.000000
68.408712 1861.000000
68.428194 1818.000000
68.447677 1910.000000
68.467159 1913.000000
68.486641 1833.000000
68.506124 1814.000000
68.525606 1842.000000
68.545089 1876.000000
68.564571 1883.000000
68.584053 1823.000000
68.603536 1866.000000
68.623018 1838.000000
68.642500 1889.000000
68.661983 1894.000000
68.681465 1872.000000
68.700947 1869.000000
68.720430 1827.000000
68.739912 1824.000000
68.759395 1902.000000
68.778877 1806.000000
68.798359 1850.000000
68.817842 1952.000000
68.837324 1909.000000
68.856806 1892.000000
68.876289 1881.000000
68.895771 1910.000000
68.915254 1812.000000
68.934736 1910.000000
68.954218 1880.000000
68.973701 1861.000000
68.993183 1857.000000
69.012665 1871.000000
69.032148 1880.000000
69.051630 1821.000000
69.071112 1904.000000
69.090595 1933.000000
69.110077 1864.000000
69.129560 1810.000000
69.149042 1832.000000
69.168524 1828.000000
69.188007 1909.000000
69.207489 1849.000000
69.226971 1857.000000
69.246454 1956.000000
69.265936 1850.000000
69.285419 1911.000000
69.304901 1984.000000
69.324383 1898.000000
69.343866 1926.000000
69.363348 1926.000000
69.382830 1901.000000
69.402313 1882.000000
69.421795 1922.000000
69.441278 1911.000000
69.460760 1848.000000
69.480242 1920.000000
69.499725 1886.000000
69.519207 1863.000000
69.538689 1893.000000
69.558172 1839.000000
69.577654 1853.000000
69.597136 1931.000000
69.616619 1852.000000
69.636101 1812.000000
69.655584 1875.000000
69.675066 1807.000000
69.694548 1875.000000
69.714031 1842.000000
69.733513 1913.000000
69.752995 1926.000000
69.772478 1871.000000
69.791960 1840.000000
69.811443 1846.000000
69.830925 1829.000000
69.850407 1863.000000
69.869890 1883.000000
69.889372 1801.000000
69.908854 1938.000000
69.928337 1927.000000
69.947819 1798.000000
69.967301 1919.000000
69.986784 1883.000000
70.006266 1807.000000
70.025749 1835.000000
