4.000000 232.000000
4.019482 224.000000
4.038965 276.000000
4.058447 226.000000
4.077929 240.000000
4.097412 233.000000
4.116894 230.000000
4.136377 227.000000
4.155859 220.000000
4.175341 229.000000
4.194824 219.000000
4.214306 230.000000
4.233788 192.000000
4.253271 208.000000
4.272753 240.000000
4.292236 215.000000
4.311718 208.000000
4.331200 208.000000
4.350683 209.000000
4.370165 188.000000
4.389647 201.000000
4.409130 171.000000
4.428612 174.000000
4.448094 178.000000
4.467577 180.000000
4.487059 161.000000
4.506542 171.000000
4.526024 185.000000
4.545506 182.000000
4.564989 181.000000
4.584471 150.000000
4.603953 185.000000
4.623436 150.000000
4.642918 179.000000
4.662401 149.000000
4.681883 180.000000
4.701365 179.000000
4.720848 157.000000
4.740330 181.000000
4.759812 144.000000
4.779295 155.000000
4.798777 158.000000
4.818259 149.000000
4.837742 147.000000
4.857224 153.000000
4.876707 147.000000
4.896189 145.000000
4.915671 148.000000
4.935154 144.000000
4.954636 126.000000
4.974118 138.000000
4.993601 145.000000
5.013083 137.000000
5.032566 110.000000
5.052048 152.000000
5.071530 142.000000
5.091013 149.000000
5.110495 140.000000
5.129977 125.000000
5.149460 129.000000
5.168942 135.000000
5.188425 145.000000
5.207907 127.000000
5.227389 120.000000
5.246872 116.000000
5.266354 140.000000
5.285836 134.000000
5.305319 133.000000
5.324801 133.000000
5.344283 133.000000
5.363766 127.000000
5.383248 127.000000
5.402731 132.000000
5.422213 124.000000
5.441695 145.000000
5.461178 99.000000
5.480660 133.000000
5.500142 114.000000
5.519625 126.000000
5.539107 123.000000
5.558590 125.000000
5.578072 111.000000
5.597554 124.000000
5.617037 125.000000
5.636519 124.000000
5.656001 118.000000
5.675484 131.000000
5.694966 120.000000
5.714448 127.000000
5.733931 120.000000
5.753413 118.000000
5.772896 109.000000
5.792378 112.000000
5.811860 121.000000
5.831343 134.000000
5.850825 115.000000
5.870307 100.000000
5.889790 112.000000
5.909272 95.000000
5.928755 92.000000
5.948237 119.000000
5.967719 135.000000
5.987202 93.000000
6.006684 120.000000
6.026166 115.000000
6.045649 115.000000
6.065131 110.000000
6.084613 116.000000
6.104096 124.000000
6.123578 108.000000
6.143061 116.000000
6.162543 90.000000
6.182025 97.000000
6.201508 121.000000
6.220990 85.000000
6.240472 87.000000
6.259955 96.000000
6.279437 96.000000
6.298920 88.000000
6.318402 111.000000
6.337884 114.000000
6.357367 83.000000
6.376849 91.000000
6.396331 114.000000
6.415814 113.000000
6.435296 99.000000
6.454778 103.000000
6.474261 102.000000
6.493743 100.000000
6.513226 112.000000
6.532708 110.000000
6.552190 101.000000
6.571673 99.000000
6.591155 89.000000
6.610637 110.000000
6.630120 103.000000
6.649602 90.000000
6.669085 112.000000
6.688567 115.000000
6.708049 81.000000
6.727532 86.000000
6.747014 102.000000
6.766496 95.000000
6.785979 86.000000
6.805461 98.000000
6.824944 94.000000
6.844426 92.000000
6.863908 98.000000
6.883391 89.000000
6.902873 101.000000
6.922355 91.000000
6.941838 80.000000
6.961320 78.000000
6.980802 107.000000
7.000285 78.000000
7.019767 80.000000
7.039250 96.000000
7.058732 92.000000
7.078214 82.000000
7.097697 98.000000
7.117179 99.000000
7.136661 80.000000
7.156144 99.000000
7.175626 77.000000
7.195109 101.000000
7.214591 65.000000
7.234073 78.000000
7.253556 97.000000
7.273038 78.000000
7.292520 95.000000
7.312003 94.000000
7.331485 104.000000
7.350967 78.000000
7.370450 69.000000
7.389932 84.000000
7.409415 78.000000
7.428897 79.000000
7.448379 96.000000
7.467862 81.000000
7.487344 93.000000
7.506826 86.000000
7.526309 93.000000
7.545791 87.000000
7.565274 100.000000
7.584756 84.000000
7.604238 76.000000
7.623721 91.000000
7.643203 79.000000
7.662685 83.000000
7.682168 70.000000
7.701650 78.000000
7.721132 93.000000
7.740615 85.000000
7.760097 77.000000
7.779580 93.000000
7.799062 90.000000
7.818544 87.000000
7.838027 72.000000
7.857509 77.000000
7.876991 94.000000
7.896474 88.000000
7.915956 68.000000
7.935439 87.000000
7.954921 73.000000
7.974403 75.000000
7.993886 90.000000
8.013368 93.000000
8.032850 74.000000
8.052333 80.000000
8.071815 91.000000
8.091297 82.000000
8.110780 87.000000
8.130262 67.000000
8.149745 80.000000
8.169227 80.000000
8.188709 66.000000
8.208192 75.000000
8.227674 78.000000
8.247156 81.000000
8.266639 88.000000
8.286121 77.000000
8.305604 76.000000
8.325086 80.000000
8.344568 89.000000
8.364051 90.000000
8.383533 67.000000
8.403015 69.000000
8.422498 63.000000
8.441980 69.000000
8.461463 85.000000
8.480945 89.000000
8.500427 82.000000
8.519910 75.000000
8.539392 68.000000
8.558874 71.000000
8.578357 69.000000
8.597839 85.000000
8.617321 74.000000
8.636804 67.000000
8.656286 81.000000
8.675769 69.000000
8.695251 61.000000
8.714733 72.000000
8.734216 79.000000
8.753698 86.000000
8.773180 79.000000
8.792663 74.000000
8.812145 73.000000
8.831628 71.000000
8.851110 66.000000
8.870592 81.000000
8.890075 68.000000
8.909557 81.000000
8.929039 75.000000
8.948522 64.000000
8.968004 79.000000
8.987486 76.000000
9.006969 72.000000
9.026451 60.000000
9.045934 76.000000
9.065416 75.000000
9.084898 74.000000
9.104381 81.000000
9.123863 77.000000
9.143345 76.000000
9.162828 69.000000
9.182310 71.000000
9.201793 68.000000
9.221275 67.000000
9.240757 74.000000
9.260240 55.000000
9.279722 75.000000
9.299204 63.000000
9.318687 66.000000
9.338169 56.000000
9.357651 64.000000
9.377134 65.000000
9.396616 78.000000
9.416099 77.000000
9.435581 72.000000
9.455063 60.000000
9.474546 73.000000
9.494028 68.000000
9.513510 63.000000
9.532993 66.000000
9.552475 70.000000
9.571958 74.000000
9.591440 74.000000
9.610922 68.000000
9.630405 71.000000
9.649887 68.000000
9.669369 71.000000
9.688852 63.000000
9.708334 73.000000
9.727816 55.000000
9.747299 83.000000
9.766781 57.000000
9.786264 68.000000
9.805746 78.000000
9.825228 66.000000
9.844711 57.000000
9.864193 67.000000
9.883675 79.000000
9.903158 59.000000
9.922640 62.000000
9.942123 76.000000
9.961605 76.000000
9.981087 67.000000
10.000570 72.000000
10.020052 61.000000
10.039534 68.000000
10.059017 59.000000
10.078499 70.000000
10.097982 74.000000
10.117464 57.000000
10.136946 62.000000
10.156429 63.000000
10.175911 79.000000
10.195393 80.000000
10.214876 68.000000
10.234358 73.000000
10.253840 71.000000
10.273323 60.000000
10.292805 49.000000
10.312288 60.000000
10.331770 88.000000
10.351252 55.000000
10.370735 79.000000
10.390217 65.000000
10.409699 66.000000
10.429182 50.000000
10.448664 68.000000
10.468147 77.000000
10.487629 80.000000
10.507111 65.000000
10.526594 59.000000
10.546076 66.000000
10.565558 55.000000
10.585041 74.000000
10.604523 71.000000
10.624005 60.000000
10.643488 63.000000
10.662970 54.000000
10.682453 74.000000
10.701935 68.000000
10.721417 76.000000
10.740900 61.000000
10.760382 57.000000
10.779864 50.000000
10.799347 67.000000
10.818829 60.000000
10.838312 60.000000
10.857794 72.000000
10.877276 71.000000
10.896759 82.000000
10.916241 66.000000
10.935723 68.000000
10.955206 69.000000
10.974688 65.000000
10.994170 55.000000
11.013653 57.000000
11.033135 61.000000
11.052618 68.000000
11.072100 54.000000
11.091582 72.000000
11.111065 65.000000
11.130547 65.000000
11.150029 58.000000
11.169512 60.000000
11.188994 64.000000
11.208477 60.000000
11.227959 57.000000
11.247441 71.000000
11.266924 60.000000
11.286406 47.000000
11.305888 63.000000
11.325371 76.000000
11.344853 53.000000
11.364335 67.000000
11.383818 40.000000
11.403300 55.000000
11.422783 74.000000
11.442265 66.000000
11.461747 56.000000
11.481230 52.000000
11.500712 61.000000
11.520194 60.000000
11.539677 62.000000
11.559159 60.000000
11.578642 76.000000
11.598124 72.000000
11.617606 51.000000
11.637089 69.000000
11.656571 52.000000
11.676053 60.000000
11.695536 53.000000
11.715018 59.000000
11.734500 68.000000
11.753983 59.000000
11.773465 52.000000
11.792948 60.000000
11.812430 47.000000
11.831912 62.000000
11.851395 63.000000
11.870877 49.000000
11.890359 60.000000
11.909842 62.000000
11.929324 40.000000
11.948807 54.000000
11.968289 41.000000
11.987771 52.000000
12.007254 56.000000
12.026736 59.000000
12.046218 46.000000
12.065701 53.000000
12.085183 61.000000
12.104666 58.000000
12.124148 57.000000
12.143630 38.000000
12.163113 63.000000
12.182595 60.000000
12.202077 57.000000
12.221560 71.000000
12.241042 59.000000
12.260524 63.000000
12.280007 56.000000
12.299489 62.000000
12.318972 51.000000
12.338454 67.000000
12.357936 62.000000
12.377419 67.000000
12.396901 62.000000
12.416383 49.000000
12.435866 57.000000
12.455348 59.000000
12.474831 56.000000
12.494313 47.000000
12.513795 56.000000
12.533278 78.000000
12.552760 59.000000
12.572242 61.000000
12.591725 65.000000
12.611207 64.000000
12.630689 59.000000
12.650172 49.000000
12.669654 53.000000
12.689137 61.000000
12.708619 54.000000
12.728101 70.000000
12.747584 53.000000
12.767066 46.000000
12.786548 65.000000
12.806031 65.000000
12.825513 64.000000
12.844996 53.000000
12.864478 54.000000
12.883960 55.000000
12.903443 50.000000
12.922925 45.000000
12.942407 46.000000
12.961890 52.000000
12.981372 46.000000
13.000854 63.000000
13.020337 59.000000
13.039819 55.000000
13.059302 47.000000
13.078784 51.000000
13.098266 61.000000
13.117749 65.000000
13.137231 57.000000
13.156713 58.000000
13.176196 40.000000
13.195678 50.000000
13.215161 39.000000
13.234643 61.000000
13.254125 55.000000
13.273608 50.000000
13.293090 53.000000
13.312572 51.000000
13.332055 50.000000
13.351537 59.000000
13.371019 49.000000
13.390502 54.000000
13.409984 53.000000
13.429467 50.000000
13.448949 55.000000
13.468431 54.000000
13.487914 38.000000
13.507396 52.000000
13.526878 47.000000
13.546361 49.000000
13.565843 72.000000
13.585326 71.000000
13.604808 55.000000
13.624290 47.000000
13.643773 49.000000
13.663255 38.000000
13.682737 48.000000
13.702220 59.000000
13.721702 59.000000
13.741185 68.000000
13.760667 45.000000
13.780149 41.000000
13.799632 31.000000
13.819114 50.000000
13.838596 48.000000
13.858079 59.000000
13.877561 41.000000
13.897043 47.000000
13.916526 54.000000
13.936008 48.000000
13.955491 53.000000
13.974973 38.000000
13.994455 50.000000
14.013938 52.000000
14.033420 43.000000
14.052902 36.000000
14.072385 45.000000
14.091867 58.000000
14.111350 57.000000
14.130832 39.000000
14.150314 45.000000
14.169797 65.000000
14.189279 50.000000
14.208761 56.000000
14.228244 54.000000
14.247726 46.000000
14.267208 42.000000
14.286691 47.000000
14.306173 37.000000
14.325656 44.000000
14.345138 43.000000
14.364620 51.000000
14.384103 43.000000
14.403585 46.000000
14.423067 49.000000
14.442550 53.000000
14.462032 48.000000
14.481515 44.000000
14.500997 53.000000
14.520479 46.000000
14.539962 47.000000
14.559444 54.000000
14.578926 54.000000
14.598409 48.000000
14.617891 50.000000
14.637373 33.000000
14.656856 43.000000
14.676338 43.000000
14.695821 52.000000
14.715303 40.000000
14.734785 51.000000
14.754268 35.000000
14.773750 58.000000
14.793232 49.000000
14.812715 41.000000
14.832197 41.000000
14.851680 46.000000
14.871162 43.000000
14.890644 43.000000
14.910127 41.000000
14.929609 45.000000
14.949091 39.000000
14.968574 46.000000
14.988056 51.000000
15.007538 46.000000
15.027021 47.000000
15.046503 51.000000
15.065986 46.000000
15.085468 44.000000
15.104950 54.000000
15.124433 48.000000
15.143915 42.000000
15.163397 45.000000
15.182880 45.000000
15.202362 46.000000
15.221845 42.000000
15.241327 48.000000
15.260809 40.000000
15.280292 43.000000
15.299774 44.000000
15.319256 54.000000
15.338739 49.000000
15.358221 48.000000
15.377704 49.000000
15.397186 50.000000
15.416668 44.000000
15.436151 44.000000
15.455633 42.000000
15.475115 49.000000
15.494598 49.000000
15.514080 47.000000
15.533562 43.000000
15.553045 38.000000
15.572527 40.000000
15.592010 49.000000
15.611492 44.000000
15.630974 34.000000
15.650457 42.000000
15.669939 52.000000
15.689421 49.000000
15.708904 47.000000
15.728386 54.000000
15.747869 51.000000
15.767351 38.000000
15.786833 37.000000
15.806316 37.000000
15.825798 42.000000
15.845280 45.000000
15.864763 48.000000
15.884245 41.000000
15.903727 44.000000
15.923210 47.000000
15.942692 53.000000
15.962175 45.000000
15.981657 38.000000
16.001139 44.000000
16.020622 51.000000
16.040104 47.000000
16.059586 46.000000
16.079069 38.000000
16.098551 45.000000
16.118034 29.000000
16.137516 38.000000
16.156998 47.000000
16.176481 40.000000
16.195963 44.000000
16.215445 47.000000
16.234928 43.000000
16.254410 32.000000
16.273892 55.000000
16.293375 31.000000
16.312857 46.000000
16.332340 50.000000
16.351822 41.000000
16.371304 33.000000
16.390787 46.000000
16.410269 39.000000
16.429751 42.000000
16.449234 42.000000
16.468716 33.000000
16.488199 47.000000
16.507681 34.000000
16.527163 45.000000
16.546646 43.000000
16.566128 45.000000
16.585610 29.000000
16.605093 32.000000
16.624575 29.000000
16.644057 39.000000
16.663540 32.000000
16.683022 45.000000
16.702505 42.000000
16.721987 49.000000
16.741469 27.000000
16.760952 34.000000
16.780434 48.000000
16.799916 45.000000
16.819399 28.000000
16.838881 47.000000
16.858364 53.000000
16.877846 39.000000
16.897328 40.000000
16.916811 49.000000
16.936293 31.000000
16.955775 34.000000
16.975258 34.000000
16.994740 40.000000
17.014222 47.000000
17.033705 35.000000
17.053187 39.000000
17.072670 54.000000
17.092152 35.000000
17.111634 36.000000
17.131117 29.000000
17.150599 46.000000
17.170081 37.000000
17.189564 37.000000
17.209046 29.000000
17.228529 41.000000
17.248011 36.000000
17.267493 47.000000
17.286976 51.000000
17.306458 43.000000
17.325940 43.000000
17.345423 42.000000
17.364905 33.000000
17.384388 36.000000
17.403870 37.000000
17.423352 32.000000
17.442835 36.000000
17.462317 32.000000
17.481799 26.000000
17.501282 38.000000
17.520764 30.000000
17.540246 48.000000
17.559729 32.000000
17.579211 39.000000
17.598694 34.000000
17.618176 28.000000
17.637658 36.000000
17.657141 35.000000
17.676623 30.000000
17.696105 38.000000
17.715588 34.000000
17.735070 34.000000
17.754553 27.000000
17.774035 36.000000
17.793517 25.000000
17.813000 42.000000
17.832482 37.000000
17.851964 34.000000
17.871447 34.000000
17.890929 53.000000
17.910411 36.000000
17.929894 38.000000
17.949376 37.000000
17.968859 27.000000
17.988341 51.000000
18.007823 40.000000
18.027306 32.000000
18.046788 41.000000
18.066270 47.000000
18.085753 47.000000
18.105235 40.000000
18.124718 37.000000
18.144200 45.000000
18.163682 30.000000
18.183165 33.000000
18.202647 44.000000
18.222129 42.000000
18.241612 33.000000
18.261094 29.000000
18.280576 31.000000
18.300059 48.000000
18.319541 22.000000
18.339024 31.000000
18.358506 42.000000
18.377988 39.000000
18.397471 38.000000
18.416953 43.000000
18.436435 35.000000
18.455918 41.000000
18.475400 36.000000
18.494883 34.000000
18.514365 37.000000
18.533847 29.000000
18.553330 29.000000
18.572812 41.000000
18.592294 29.000000
18.611777 36.000000
18.631259 40.000000
18.650741 38.000000
18.670224 34.000000
18.689706 38.000000
18.709189 42.000000
18.728671 35.000000
18.748153 43.000000
18.767636 34.000000
18.787118 40.000000
18.806600 40.000000
18.826083 41.000000
18.845565 33.000000
18.865048 46.000000
18.884530 33.000000
18.904012 42.000000
18.923495 36.000000
18.942977 34.000000
18.962459 32.000000
18.981942 35.000000
19.001424 43.000000
19.020907 30.000000
19.040389 43.000000
19.059871 27.000000
19.079354 37.000000
19.098836 24.000000
19.118318 31.000000
19.137801 47.000000
19.157283 37.000000
19.176765 35.000000
19.196248 32.000000
19.215730 38.000000
19.235213 35.000000
19.254695 34.000000
19.274177 39.000000
19.293660 45.000000
19.313142 43.000000
19.332624 27.000000
19.352107 45.000000
19.371589 35.000000
19.391072 35.000000
19.410554 24.000000
19.430036 27.000000
19.449519 38.000000
19.469001 26.000000
19.488483 44.000000
19.507966 39.000000
19.527448 33.000000
19.546930 43.000000
19.566413 51.000000
19.585895 45.000000
19.605378 33.000000
19.624860 39.000000
19.644342 42.000000
19.663825 29.000000
19.683307 45.000000
19.702789 38.000000
19.722272 43.000000
19.741754 35.000000
19.761237 29.000000
19.780719 27.000000
19.800201 32.000000
19.819684 32.000000
19.839166 26.000000
19.858648 23.000000
19.878131 35.000000
19.897613 44.000000
19.917095 43.000000
19.936578 35.000000
19.956060 25.000000
19.975543 32.000000
19.995025 28.000000
20.014507 33.000000
20.033990 32.000000
20.053472 29.000000
20.072954 44.000000
20.092437 45.000000
20.111919 40.000000
20.131402 34.000000
20.150884 48.000000
20.170366 53.000000
20.189849 44.000000
20.209331 41.000000
20.228813 35.000000
20.248296 45.000000
20.267778 38.000000
20.287260 42.000000
20.306743 50.000000
20.326225 43.000000
20.345708 34.000000
20.365190 52.000000
20.384672 41.000000
20.404155 48.000000
20.423637 45.000000
20.443119 44.000000
20.462602 41.000000
20.482084 39.000000
20.501567 51.000000
20.521049 44.000000
20.540531 63.000000
20.560014 61.000000
20.579496 53.000000
20.598978 61.000000
20.618461 53.000000
20.637943 69.000000
20.657426 72.000000
20.676908 82.000000
20.696390 112.000000
20.715873 149.000000
20.735355 297.000000
20.754837 561.000000
20.774320 870.000000
20.793802 1530.000000
20.813284 2549.000000
20.832767 3368.000000
20.852249 3006.000000
20.871732 2126.000000
20.891214 1665.000000
20.910696 981.000000
20.930179 392.000000
20.949661 175.000000
20.969143 114.000000
20.988626 81.000000
21.008108 73.000000
21.027591 62.000000
21.047073 80.000000
21.066555 62.000000
21.086038 46.000000
21.105520 47.000000
21.125002 40.000000
21.144485 37.000000
21.163967 44.000000
21.183449 51.000000
21.202932 58.000000
21.222414 38.000000
21.241897 42.000000
21.261379 47.000000
21.280861 45.000000
21.300344 47.000000
21.319826 39.000000
21.339308 39.000000
21.358791 48.000000
21.378273 32.000000
21.397756 40.000000
21.417238 29.000000
21.436720 31.000000
21.456203 32.000000
21.475685 38.000000
21.495167 49.000000
21.514650 30.000000
21.534132 37.000000
21.553614 42.000000
21.573097 36.000000
21.592579 35.000000
21.612062 41.000000
21.631544 31.000000
21.651026 31.000000
21.670509 35.000000
21.689991 50.000000
21.709473 36.000000
21.728956 28.000000
21.748438 40.000000
21.767921 32.000000
21.787403 30.000000
21.806885 31.000000
21.826368 42.000000
21.845850 36.000000
21.865332 45.000000
21.884815 41.000000
21.904297 44.000000
21.923779 32.000000
21.943262 51.000000
21.962744 39.000000
21.982227 43.000000
22.001709 32.000000
22.021191 38.000000
22.040674 27.000000
22.060156 40.000000
22.079638 41.000000
22.099121 41.000000
22.118603 21.000000
22.138086 29.000000
22.157568 26.000000
22.177050 32.000000
22.196533 37.000000
22.216015 32.000000
22.235497 34.000000
22.254980 33.000000
22.274462 34.000000
22.293945 39.000000
22.313427 40.000000
22.332909 32.000000
22.352392 35.000000
22.371874 33.000000
22.391356 43.000000
22.410839 33.000000
22.430321 40.000000
22.449803 29.000000
22.469286 37.000000
22.488768 34.000000
22.508251 34.000000
22.527733 35.000000
22.547215 43.000000
22.566698 34.000000
22.586180 37.000000
22.605662 37.000000
22.625145 30.000000
22.644627 33.000000
22.664110 26.000000
22.683592 37.000000
22.703074 38.000000
22.722557 33.000000
22.742039 48.000000
22.761521 36.000000
22.781004 34.000000
22.800486 41.000000
22.819968 51.000000
22.839451 27.000000
22.858933 44.000000
22.878416 38.000000
22.897898 32.000000
22.917380 29.000000
22.936863 30.000000
22.956345 48.000000
22.975827 27.000000
22.995310 34.000000
23.014792 29.000000
23.034275 33.000000
23.053757 31.000000
23.073239 26.000000
23.092722 37.000000
23.112204 34.000000
23.131686 32.000000
23.151169 31.000000
23.170651 32.000000
23.190133 36.000000
23.209616 33.000000
23.229098 33.000000
23.248581 44.000000
23.268063 38.000000
23.287545 30.000000
23.307028 34.000000
23.326510 29.000000
23.345992 32.000000
23.365475 23.000000
23.384957 38.000000
23.404440 34.000000
23.423922 32.000000
23.443404 35.000000
23.462887 30.000000
23.482369 24.000000
23.501851 32.000000
23.521334 33.000000
23.540816 34.000000
23.560298 36.000000
23.579781 34.000000
23.599263 38.000000
23.618746 39.000000
23.638228 37.000000
23.657710 37.000000
23.677193 32.000000
23.696675 33.000000
23.716157 36.000000
23.735640 40.000000
23.755122 35.000000
23.774605 36.000000
23.794087 29.000000
23.813569 27.000000
23.833052 27.000000
23.852534 42.000000
23.872016 51.000000
23.891499 41.000000
23.910981 53.000000
23.930463 35.000000
23.949946 30.000000
23.969428 41.000000
23.988911 55.000000
24.008393 58.000000
24.027875 56.000000
24.047358 36.000000
24.066840 35.000000
24.086322 41.000000
24.105805 37.000000
24.125287 42.000000
24.144770 40.000000
24.164252 26.000000
24.183734 28.000000
24.203217 30.000000
24.222699 27.000000
24.242181 35.000000
24.261664 26.000000
24.281146 35.000000
24.300629 38.000000
24.320111 33.000000
24.339593 33.000000
24.359076 27.000000
24.378558 33.000000
24.398040 42.000000
24.417523 33.000000
24.437005 39.000000
24.456487 45.000000
24.475970 30.000000
24.495452 33.000000
24.514935 26.000000
24.534417 33.000000
24.553899 36.000000
24.573382 31.000000
24.592864 31.000000
24.612346 28.000000
24.631829 28.000000
24.651311 30.000000
24.670794 39.000000
24.690276 22.000000
24.709758 33.000000
24.729241 38.000000
24.748723 38.000000
24.768205 31.000000
24.787688 30.000000
24.807170 25.000000
24.826652 27.000000
24.846135 23.000000
24.865617 27.000000
24.885100 31.000000
24.904582 40.000000
24.924064 26.000000
24.943547 30.000000
24.963029 32.000000
24.982511 32.000000
25.001994 34.000000
25.021476 30.000000
25.040959 28.000000
25.060441 26.000000
25.079923 50.000000
25.099406 32.000000
25.118888 41.000000
25.138370 35.000000
25.157853 24.000000
25.177335 31.000000
25.196817 31.000000
25.216300 25.000000
25.235782 22.000000
25.255265 27.000000
25.274747 28.000000
25.294229 28.000000
25.313712 34.000000
25.333194 25.000000
25.352676 23.000000
25.372159 30.000000
25.391641 42.000000
25.411124 27.000000
25.430606 22.000000
25.450088 38.000000
25.469571 24.000000
25.489053 34.000000
25.508535 39.000000
25.528018 30.000000
25.547500 28.000000
25.566982 33.000000
25.586465 23.000000
25.605947 37.000000
25.625430 36.000000
25.644912 32.000000
25.664394 38.000000
25.683877 45.000000
25.703359 57.000000
25.722841 72.000000
25.742324 55.000000
25.761806 73.000000
25.781289 69.000000
25.800771 64.000000
25.820253 49.000000
25.839736 70.000000
25.859218 64.000000
25.878700 66.000000
25.898183 69.000000
25.917665 71.000000
25.937148 66.000000
25.956630 71.000000
25.976112 70.000000
25.995595 74.000000
26.015077 60.000000
26.034559 79.000000
26.054042 57.000000
26.073524 85.000000
26.093006 76.000000
26.112489 59.000000
26.131971 79.000000
26.151454 78.000000
26.170936 79.000000
26.190418 76.000000
26.209901 73.000000
26.229383 84.000000
26.248865 75.000000
26.268348 93.000000
26.287830 104.000000
26.307313 101.000000
26.326795 92.000000
26.346277 112.000000
26.365760 118.000000
26.385242 130.000000
26.404724 146.000000
26.424207 161.000000
26.443689 224.000000
26.463171 272.000000
26.482654 356.000000
26.502136 587.000000
26.521619 1026.000000
26.541101 1853.000000
26.560583 3568.000000
26.580066 6083.000000
26.599548 8797.000000
26.619030 11188.000000
26.638513 10186.000000
26.657995 6786.000000
26.677478 5743.000000
26.696960 5221.000000
26.716442 2934.000000
26.735925 1045.000000
26.755407 445.000000
26.774889 317.000000
26.794372 224.000000
26.813854 192.000000
26.833336 171.000000
26.852819 152.000000
26.872301 111.000000
26.891784 123.000000
26.911266 108.000000
26.930748 100.000000
26.950231 86.000000
26.969713 106.000000
26.989195 82.000000
27.008678 86.000000
27.028160 56.000000
27.047643 67.000000
27.067125 66.000000
27.086607 68.000000
27.106090 46.000000
27.125572 61.000000
27.145054 59.000000
27.164537 57.000000
27.184019 56.000000
27.203501 70.000000
27.222984 50.000000
27.242466 55.000000
27.261949 60.000000
27.281431 60.000000
27.300913 66.000000
27.320396 52.000000
27.339878 68.000000
27.359360 64.000000
27.378843 53.000000
27.398325 62.000000
27.417808 59.000000
27.437290 41.000000
27.456772 57.000000
27.476255 63.000000
27.495737 48.000000
27.515219 43.000000
27.534702 50.000000
27.554184 46.000000
27.573667 50.000000
27.593149 62.000000
27.612631 50.000000
27.632114 53.000000
27.651596 37.000000
27.671078 38.000000
27.690561 36.000000
27.710043 50.000000
27.729525 41.000000
27.749008 49.000000
27.768490 50.000000
27.787973 39.000000
27.807455 32.000000
27.826937 41.000000
27.846420 55.000000
27.865902 52.000000
27.885384 57.000000
27.904867 49.000000
27.924349 44.000000
27.943832 46.000000
27.963314 23.000000
27.982796 42.000000
28.002279 50.000000
28.021761 47.000000
28.041243 50.000000
28.060726 51.000000
28.080208 36.000000
28.099690 38.000000
28.119173 36.000000
28.138655 31.000000
28.158138 39.000000
28.177620 35.000000
28.197102 33.000000
28.216585 33.000000
28.236067 41.000000
28.255549 41.000000
28.275032 37.000000
28.294514 45.000000
28.313997 33.000000
28.333479 50.000000
28.352961 36.000000
28.372444 47.000000
28.391926 34.000000
28.411408 50.000000
28.430891 36.000000
28.450373 44.000000
28.469855 43.000000
28.489338 45.000000
28.508820 33.000000
28.528303 37.000000
28.547785 38.000000
28.567267 43.000000
28.586750 34.000000
28.606232 35.000000
28.625714 50.000000
28.645197 40.000000
28.664679 44.000000
28.684162 28.000000
28.703644 35.000000
28.723126 36.000000
28.742609 38.000000
28.762091 43.000000
28.781573 36.000000
28.801056 48.000000
28.820538 33.000000
28.840020 39.000000
28.859503 46.000000
28.878985 30.000000
28.898468 36.000000
28.917950 41.000000
28.937432 38.000000
28.956915 49.000000
28.976397 36.000000
28.995879 46.000000
29.015362 19.000000
29.034844 33.000000
29.054327 42.000000
29.073809 34.000000
29.093291 26.000000
29.112774 41.000000
29.132256 29.000000
29.151738 37.000000
29.171221 39.000000
29.190703 28.000000
29.210185 31.000000
29.229668 37.000000
29.249150 47.000000
29.268633 40.000000
29.288115 36.000000
29.307597 34.000000
29.327080 41.000000
29.346562 50.000000
29.366044 35.000000
29.385527 48.000000
29.405009 43.000000
29.424492 44.000000
29.443974 34.000000
29.463456 40.000000
29.482939 34.000000
29.502421 39.000000
29.521903 35.000000
29.541386 37.000000
29.560868 27.000000
29.580351 43.000000
29.599833 38.000000
29.619315 36.000000
29.638798 42.000000
29.658280 31.000000
29.677762 36.000000
29.697245 45.000000
29.716727 36.000000
29.736209 33.000000
29.755692 42.000000
29.775174 28.000000
29.794657 26.000000
29.814139 40.000000
29.833621 45.000000
29.853104 31.000000
29.872586 30.000000
29.892068 37.000000
29.911551 24.000000
29.931033 38.000000
29.950516 38.000000
29.969998 27.000000
29.989480 45.000000
30.008963 41.000000
30.028445 43.000000
30.047927 23.000000
30.067410 40.000000
30.086892 35.000000
30.106374 29.000000
30.125857 27.000000
30.145339 35.000000
30.164822 35.000000
30.184304 26.000000
30.203786 30.000000
30.223269 35.000000
30.242751 29.000000
30.262233 30.000000
30.281716 32.000000
30.301198 35.000000
30.320681 24.000000
30.340163 26.000000
30.359645 38.000000
30.379128 37.000000
30.398610 31.000000
30.418092 28.000000
30.437575 35.000000
30.457057 25.000000
30.476539 42.000000
30.496022 24.000000
30.515504 29.000000
30.534987 31.000000
30.554469 26.000000
30.573951 35.000000
30.593434 31.000000
30.612916 33.000000
30.632398 38.000000
30.651881 40.000000
30.671363 37.000000
30.690846 45.000000
30.710328 30.000000
30.729810 30.000000
30.749293 25.000000
30.768775 25.000000
30.788257 30.000000
30.807740 30.000000
30.827222 31.000000
30.846704 23.000000
30.866187 25.000000
30.885669 35.000000
30.905152 30.000000
30.924634 33.000000
30.944116 41.000000
30.963599 31.000000
30.983081 28.000000
31.002563 29.000000
31.022046 33.000000
31.041528 32.000000
31.061011 18.000000
31.080493 34.000000
31.099975 40.000000
31.119458 32.000000
31.138940 31.000000
31.158422 25.000000
31.177905 20.000000
31.197387 23.000000
31.216870 36.000000
31.236352 32.000000
31.255834 32.000000
31.275317 26.000000
31.294799 37.000000
31.314281 31.000000
31.333764 22.000000
31.353246 35.000000
31.372728 28.000000
31.392211 26.000000
31.411693 34.000000
31.431176 32.000000
31.450658 35.000000
31.470140 33.000000
31.489623 33.000000
31.509105 31.000000
31.528587 24.000000
31.548070 23.000000
31.567552 31.000000
31.587035 27.000000
31.606517 24.000000
31.625999 37.000000
31.645482 28.000000
31.664964 23.000000
31.684446 25.000000
31.703929 33.000000
31.723411 28.000000
31.742893 29.000000
31.762376 29.000000
31.781858 26.000000
31.801341 35.000000
31.820823 24.000000
31.840305 24.000000
31.859788 36.000000
31.879270 25.000000
31.898752 24.000000
31.918235 16.000000
31.937717 19.000000
31.957200 32.000000
31.976682 36.000000
31.996164 32.000000
32.015647 29.000000
32.035129 28.000000
32.054611 30.000000
32.074094 33.000000
32.093576 33.000000
32.113058 20.000000
32.132541 26.000000
32.152023 29.000000
32.171506 27.000000
32.190988 26.000000
32.210470 23.000000
32.229953 21.000000
32.249435 28.000000
32.268917 19.000000
32.288400 32.000000
32.307882 30.000000
32.327365 22.000000
32.346847 29.000000
32.366329 31.000000
32.385812 36.000000
32.405294 31.000000
32.424776 36.000000
32.444259 30.000000
32.463741 34.000000
32.483223 28.000000
32.502706 32.000000
32.522188 24.000000
32.541671 30.000000
32.561153 22.000000
32.580635 21.000000
32.600118 31.000000
32.619600 31.000000
32.639082 29.000000
32.658565 25.000000
32.678047 27.000000
32.697530 26.000000
32.717012 36.000000
32.736494 28.000000
32.755977 29.000000
32.775459 30.000000
32.794941 28.000000
32.814424 23.000000
32.833906 15.000000
32.853389 32.000000
32.872871 27.000000
32.892353 22.000000
32.911836 27.000000
32.931318 34.000000
32.950800 27.000000
32.970283 28.000000
32.989765 24.000000
33.009247 30.000000
33.028730 22.000000
33.048212 37.000000
33.067695 27.000000
33.087177 32.000000
33.106659 28.000000
33.126142 24.000000
33.145624 35.000000
33.165106 26.000000
33.184589 18.000000
33.204071 23.000000
33.223554 28.000000
33.243036 24.000000
33.262518 31.000000
33.282001 28.000000
33.301483 30.000000
33.320965 18.000000
33.340448 31.000000
33.359930 23.000000
33.379412 28.000000
33.398895 33.000000
33.418377 35.000000
33.437860 26.000000
33.457342 27.000000
33.476824 28.000000
33.496307 33.000000
33.515789 17.000000
33.535271 24.000000
33.554754 23.000000
33.574236 25.000000
33.593719 17.000000
33.613201 29.000000
33.632683 20.000000
33.652166 26.000000
33.671648 25.000000
33.691130 19.000000
33.710613 19.000000
33.730095 22.000000
33.749577 33.000000
33.769060 29.000000
33.788542 27.000000
33.808025 26.000000
33.827507 22.000000
33.846989 34.000000
33.866472 32.000000
33.885954 33.000000
33.905436 22.000000
33.924919 21.000000
33.944401 34.000000
33.963884 18.000000
33.983366 30.000000
34.002848 39.000000
34.022331 26.000000
34.041813 20.000000
34.061295 28.000000
34.080778 26.000000
34.100260 28.000000
34.119742 25.000000
34.139225 26.000000
34.158707 18.000000
34.178190 28.000000
34.197672 20.000000
34.217154 29.000000
34.236637 15.000000
34.256119 30.000000
34.275601 35.000000
34.295084 25.000000
34.314566 23.000000
34.334049 24.000000
34.353531 28.000000
34.373013 23.000000
34.392496 22.000000
34.411978 21.000000
34.431460 39.000000
34.450943 30.000000
34.470425 28.000000
34.489908 24.000000
34.509390 26.000000
34.528872 26.000000
34.548355 28.000000
34.567837 34.000000
34.587319 26.000000
34.606802 23.000000
34.626284 24.000000
34.645766 18.000000
34.665249 23.000000
34.684731 30.000000
34.704214 19.000000
34.723696 27.000000
34.743178 14.000000
34.762661 27.000000
34.782143 27.000000
34.801625 22.000000
34.821108 25.000000
34.840590 26.000000
34.860073 26.000000
34.879555 28.000000
34.899037 30.000000
34.918520 21.000000
34.938002 26.000000
34.957484 23.000000
34.976967 30.000000
34.996449 30.000000
35.015931 21.000000
35.035414 22.000000
35.054896 28.000000
35.074379 24.000000
35.093861 37.000000
35.113343 15.000000
35.132826 28.000000
35.152308 27.000000
35.171790 25.000000
35.191273 24.000000
35.210755 15.000000
35.230238 28.000000
35.249720 24.000000
35.269202 24.000000
35.288685 27.000000
35.308167 28.000000
35.327649 32.000000
35.347132 20.000000
35.366614 29.000000
35.386096 23.000000
35.405579 28.000000
35.425061 28.000000
35.444544 25.000000
35.464026 28.000000
35.483508 33.000000
35.502991 41.000000
35.522473 25.000000
35.541955 24.000000
35.561438 18.000000
35.580920 24.000000
35.600403 29.000000
35.619885 23.000000
35.639367 26.000000
35.658850 18.000000
35.678332 30.000000
35.697814 26.000000
35.717297 26.000000
35.736779 27.000000
35.756261 26.000000
35.775744 28.000000
35.795226 25.000000
35.814709 23.000000
35.834191 34.000000
35.853673 30.000000
35.873156 27.000000
35.892638 32.000000
35.912120 30.000000
35.931603 21.000000
35.951085 35.000000
35.970568 24.000000
35.990050 26.000000
36.009532 24.000000
36.029015 27.000000
36.048497 25.000000
36.067979 17.000000
36.087462 18.000000
36.106944 29.000000
36.126426 27.000000
36.145909 26.000000
36.165391 33.000000
36.184874 32.000000
36.204356 27.000000
36.223838 30.000000
36.243321 38.000000
36.262803 25.000000
36.282285 36.000000
36.301768 35.000000
36.321250 33.000000
36.340733 48.000000
36.360215 52.000000
36.379697 49.000000
36.399180 71.000000
36.418662 95.000000
36.438144 134.000000
36.457627 244.000000
36.477109 376.000000
36.496592 585.000000
36.516074 757.000000
36.535556 843.000000
36.555039 650.000000
36.574521 477.000000
36.594003 384.000000
36.613486 443.000000
36.632968 413.000000
36.652450 282.000000
36.671933 128.000000
36.691415 84.000000
36.710898 65.000000
36.730380 44.000000
36.749862 47.000000
36.769345 47.000000
36.788827 43.000000
36.808309 31.000000
36.827792 25.000000
36.847274 27.000000
36.866757 26.000000
36.886239 26.000000
36.905721 33.000000
36.925204 30.000000
36.944686 27.000000
36.964168 28.000000
36.983651 28.000000
37.003133 21.000000
37.022615 19.000000
37.042098 19.000000
37.061580 27.000000
37.081063 23.000000
37.100545 23.000000
37.120027 18.000000
37.139510 24.000000
37.158992 26.000000
37.178474 27.000000
37.197957 25.000000
37.217439 30.000000
37.236922 27.000000
37.256404 33.000000
37.275886 22.000000
37.295369 30.000000
37.314851 24.000000
37.334333 28.000000
37.353816 21.000000
37.373298 33.000000
37.392780 20.000000
37.412263 25.000000
37.431745 31.000000
37.451228 20.000000
37.470710 26.000000
37.490192 26.000000
37.509675 29.000000
37.529157 25.000000
37.548639 19.000000
37.568122 13.000000
37.587604 27.000000
37.607087 23.000000
37.626569 33.000000
37.646051 22.000000
37.665534 20.000000
37.685016 28.000000
37.704498 32.000000
37.723981 19.000000
37.743463 20.000000
37.762945 19.000000
37.782428 21.000000
37.801910 27.000000
37.821393 26.000000
37.840875 25.000000
37.860357 28.000000
37.879840 24.000000
37.899322 18.000000
37.918804 22.000000
37.938287 13.000000
37.957769 18.000000
37.977252 27.000000
37.996734 27.000000
38.016216 29.000000
38.035699 25.000000
38.055181 29.000000
38.074663 30.000000
38.094146 30.000000
38.113628 20.000000
38.133111 22.000000
38.152593 24.000000
38.172075 23.000000
38.191558 23.000000
38.211040 32.000000
38.230522 21.000000
38.250005 18.000000
38.269487 31.000000
38.288969 29.000000
38.308452 21.000000
38.327934 19.000000
38.347417 20.000000
38.366899 29.000000
38.386381 20.000000
38.405864 36.000000
38.425346 32.000000
38.444828 18.000000
38.464311 27.000000
38.483793 27.000000
38.503276 23.000000
38.522758 19.000000
38.542240 21.000000
38.561723 18.000000
38.581205 25.000000
38.600687 26.000000
38.620170 13.000000
38.639652 22.000000
38.659134 25.000000
38.678617 31.000000
38.698099 36.000000
38.717582 22.000000
38.737064 23.000000
38.756546 28.000000
38.776029 23.000000
38.795511 20.000000
38.814993 25.000000
38.834476 26.000000
38.853958 20.000000
38.873441 24.000000
38.892923 29.000000
38.912405 29.000000
38.931888 22.000000
38.951370 28.000000
38.970852 25.000000
38.990335 27.000000
39.009817 24.000000
39.029299 44.000000
39.048782 30.000000
39.068264 35.000000
39.087747 25.000000
39.107229 22.000000
39.126711 23.000000
39.146194 27.000000
39.165676 28.000000
39.185158 21.000000
39.204641 26.000000
39.224123 36.000000
39.243606 38.000000
39.263088 50.000000
39.282570 37.000000
39.302053 47.000000
39.321535 45.000000
39.341017 81.000000
39.360500 139.000000
39.379982 204.000000
39.399464 299.000000
39.418947 456.000000
39.438429 677.000000
39.457912 629.000000
39.477394 460.000000
39.496876 258.000000
39.516359 273.000000
39.535841 313.000000
39.555323 347.000000
39.574806 229.000000
39.594288 118.000000
39.613771 77.000000
39.633253 52.000000
39.652735 54.000000
39.672218 40.000000
39.691700 28.000000
39.711182 38.000000
39.730665 31.000000
39.750147 34.000000
39.769630 28.000000
39.789112 32.000000
39.808594 30.000000
39.828077 36.000000
39.847559 23.000000
39.867041 32.000000
39.886524 35.000000
39.906006 30.000000
39.925488 32.000000
39.944971 31.000000
39.964453 28.000000
39.983936 32.000000
40.003418 30.000000
40.022900 30.000000
40.042383 36.000000
40.061865 30.000000
40.081347 46.000000
40.100830 33.000000
40.120312 35.000000
40.139795 38.000000
40.159277 53.000000
40.178759 76.000000
40.198242 94.000000
40.217724 160.000000
40.237206 250.000000
40.256689 407.000000
40.276171 377.000000
40.295653 293.000000
40.315136 182.000000
40.334618 149.000000
40.354101 167.000000
40.373583 193.000000
40.393065 165.000000
40.412548 100.000000
40.432030 64.000000
40.451512 38.000000
40.470995 33.000000
40.490477 41.000000
40.509960 20.000000
40.529442 28.000000
40.548924 43.000000
40.568407 29.000000
40.587889 40.000000
40.607371 30.000000
40.626854 28.000000
40.646336 23.000000
40.665818 15.000000
40.685301 28.000000
40.704783 26.000000
40.724266 16.000000
40.743748 27.000000
40.763230 16.000000
40.782713 23.000000
40.802195 21.000000
40.821677 28.000000
40.841160 21.000000
40.860642 30.000000
40.880125 24.000000
40.899607 19.000000
40.919089 27.000000
40.938572 28.000000
40.958054 21.000000
40.977536 26.000000
40.997019 19.000000
41.016501 33.000000
41.035983 32.000000
41.055466 38.000000
41.074948 21.000000
41.094431 29.000000
41.113913 27.000000
41.133395 20.000000
41.152878 21.000000
41.172360 31.000000
41.191842 27.000000
41.211325 25.000000
41.230807 12.000000
41.250290 34.000000
41.269772 28.000000
41.289254 24.000000
41.308737 30.000000
41.328219 25.000000
41.347701 21.000000
41.367184 25.000000
41.386666 23.000000
41.406149 15.000000
41.425631 29.000000
41.445113 21.000000
41.464596 20.000000
41.484078 21.000000
41.503560 22.000000
41.523043 22.000000
41.542525 26.000000
41.562007 24.000000
41.581490 19.000000
41.600972 13.000000
41.620455 27.000000
41.639937 28.000000
41.659419 22.000000
41.678902 30.000000
41.698384 35.000000
41.717866 24.000000
41.737349 37.000000
41.756831 28.000000
41.776314 36.000000
41.795796 20.000000
41.815278 23.000000
41.834761 24.000000
41.854243 26.000000
41.873725 23.000000
41.893208 18.000000
41.912690 35.000000
41.932172 16.000000
41.951655 17.000000
41.971137 24.000000
41.990620 24.000000
42.010102 35.000000
42.029584 23.000000
42.049067 25.000000
42.068549 24.000000
42.088031 28.000000
42.107514 27.000000
42.126996 15.000000
42.146479 22.000000
42.165961 23.000000
42.185443 38.000000
42.204926 29.000000
42.224408 31.000000
42.243890 36.000000
42.263373 35.000000
42.282855 43.000000
42.302337 57.000000
42.321820 83.000000
42.341302 138.000000
42.360785 213.000000
42.380267 340.000000
42.399749 494.000000
42.419232 679.000000
42.438714 749.000000
42.458196 490.000000
42.477679 331.000000
42.497161 314.000000
42.516644 336.000000
42.536126 403.000000
42.555608 322.000000
42.575091 244.000000
42.594573 132.000000
42.614055 63.000000
42.633538 51.000000
42.653020 35.000000
42.672502 34.000000
42.691985 38.000000
42.711467 45.000000
42.730950 27.000000
42.750432 29.000000
42.769914 30.000000
42.789397 37.000000
42.808879 32.000000
42.828361 37.000000
42.847844 24.000000
42.867326 15.000000
42.886809 26.000000
42.906291 19.000000
42.925773 27.000000
42.945256 26.000000
42.964738 29.000000
42.984220 22.000000
43.003703 25.000000
43.023185 26.000000
43.042667 27.000000
43.062150 25.000000
43.081632 28.000000
43.101115 19.000000
43.120597 25.000000
43.140079 34.000000
43.159562 24.000000
43.179044 33.000000
43.198526 23.000000
43.218009 23.000000
43.237491 22.000000
43.256974 25.000000
43.276456 26.000000
43.295938 29.000000
43.315421 26.000000
43.334903 21.000000
43.354385 22.000000
43.373868 22.000000
43.393350 33.000000
43.412833 22.000000
43.432315 25.000000
43.451797 20.000000
43.471280 25.000000
43.490762 29.000000
43.510244 14.000000
43.529727 24.000000
43.549209 19.000000
43.568691 23.000000
43.588174 14.000000
43.607656 28.000000
43.627139 25.000000
43.646621 29.000000
43.666103 15.000000
43.685586 29.000000
43.705068 16.000000
43.724550 23.000000
43.744033 33.000000
43.763515 15.000000
43.782998 24.000000
43.802480 17.000000
43.821962 29.000000
43.841445 22.000000
43.860927 18.000000
43.880409 17.000000
43.899892 23.000000
43.919374 20.000000
43.938856 23.000000
43.958339 22.000000
43.977821 23.000000
43.997304 23.000000
44.016786 16.000000
44.036268 20.000000
44.055751 21.000000
44.075233 20.000000
44.094715 16.000000
44.114198 24.000000
44.133680 25.000000
44.153163 13.000000
44.172645 18.000000
44.192127 26.000000
44.211610 24.000000
44.231092 15.000000
44.250574 19.000000
44.270057 20.000000
44.289539 27.000000
44.309021 15.000000
44.328504 33.000000
44.347986 21.000000
44.367469 23.000000
44.386951 29.000000
44.406433 34.000000
44.425916 24.000000
44.445398 17.000000
44.464880 28.000000
44.484363 29.000000
44.503845 16.000000
44.523328 23.000000
44.542810 14.000000
44.562292 20.000000
44.581775 15.000000
44.601257 28.000000
44.620739 25.000000
44.640222 26.000000
44.659704 24.000000
44.679186 36.000000
44.698669 16.000000
44.718151 15.000000
44.737634 25.000000
44.757116 26.000000
44.776598 22.000000
44.796081 13.000000
44.815563 23.000000
44.835045 19.000000
44.854528 25.000000
44.874010 20.000000
44.893493 19.000000
44.912975 22.000000
44.932457 23.000000
44.951940 17.000000
44.971422 23.000000
44.990904 20.000000
45.010387 24.000000
45.029869 17.000000
45.049352 21.000000
45.068834 22.000000
45.088316 16.000000
45.107799 27.000000
45.127281 28.000000
45.146763 20.000000
45.166246 27.000000
45.185728 20.000000
45.205210 22.000000
45.224693 24.000000
45.244175 24.000000
45.263658 24.000000
45.283140 21.000000
45.302622 20.000000
45.322105 23.000000
45.341587 30.000000
45.361069 20.000000
45.380552 32.000000
45.400034 24.000000
45.419517 32.000000
45.438999 15.000000
45.458481 25.000000
45.477964 28.000000
45.497446 20.000000
45.516928 26.000000
45.536411 26.000000
45.555893 26.000000
45.575375 29.000000
45.594858 35.000000
45.614340 37.000000
45.633823 28.000000
45.653305 52.000000
45.672787 63.000000
45.692270 92.000000
45.711752 140.000000
45.731234 204.000000
45.750717 257.000000
45.770199 319.000000
45.789682 339.000000
45.809164 242.000000
45.828646 164.000000
45.848129 125.000000
45.867611 130.000000
45.887093 165.000000
45.906576 183.000000
45.926058 125.000000
45.945540 67.000000
45.965023 54.000000
45.984505 34.000000
46.003988 31.000000
46.023470 33.000000
46.042952 19.000000
46.062435 22.000000
46.081917 28.000000
46.101399 18.000000
46.120882 28.000000
46.140364 31.000000
46.159847 27.000000
46.179329 33.000000
46.198811 29.000000
46.218294 25.000000
46.237776 26.000000
46.257258 16.000000
46.276741 24.000000
46.296223 25.000000
46.315705 28.000000
46.335188 21.000000
46.354670 20.000000
46.374153 20.000000
46.393635 26.000000
46.413117 28.000000
46.432600 21.000000
46.452082 21.000000
46.471564 34.000000
46.491047 27.000000
46.510529 21.000000
46.530012 26.000000
46.549494 22.000000
46.568976 28.000000
46.588459 30.000000
46.607941 26.000000
46.627423 31.000000
46.646906 20.000000
46.666388 19.000000
46.685871 29.000000
46.705353 19.000000
46.724835 24.000000
46.744318 26.000000
46.763800 28.000000
46.783282 18.000000
46.802765 26.000000
46.822247 15.000000
46.841729 17.000000
46.861212 17.000000
46.880694 17.000000
46.900177 12.000000
46.919659 18.000000
46.939141 22.000000
46.958624 25.000000
46.978106 30.000000
46.997588 17.000000
47.017071 18.000000
47.036553 24.000000
47.056036 17.000000
47.075518 22.000000
47.095000 17.000000
47.114483 20.000000
47.133965 22.000000
47.153447 24.000000
47.172930 17.000000
47.192412 22.000000
47.211894 20.000000
47.231377 24.000000
47.250859 20.000000
47.270342 33.000000
47.289824 23.000000
47.309306 22.000000
47.328789 30.000000
47.348271 20.000000
47.367753 14.000000
47.387236 29.000000
47.406718 26.000000
47.426201 24.000000
47.445683 24.000000
47.465165 42.000000
47.484648 34.000000
47.504130 41.000000
47.523612 41.000000
47.543095 36.000000
47.562577 29.000000
47.582059 37.000000
47.601542 27.000000
47.621024 27.000000
47.640507 31.000000
47.659989 25.000000
47.679471 24.000000
47.698954 22.000000
47.718436 22.000000
47.737918 17.000000
47.757401 18.000000
47.776883 25.000000
47.796366 22.000000
47.815848 18.000000
47.835330 14.000000
47.854813 19.000000
47.874295 21.000000
47.893777 27.000000
47.913260 23.000000
47.932742 17.000000
47.952224 11.000000
47.971707 29.000000
47.991189 24.000000
48.010672 19.000000
48.030154 22.000000
48.049636 18.000000
48.069119 21.000000
48.088601 15.000000
48.108083 31.000000
48.127566 22.000000
48.147048 10.000000
48.166531 17.000000
48.186013 22.000000
48.205495 15.000000
48.224978 25.000000
48.244460 19.000000
48.263942 22.000000
48.283425 17.000000
48.302907 26.000000
48.322389 22.000000
48.341872 20.000000
48.361354 23.000000
48.380837 28.000000
48.400319 26.000000
48.419801 21.000000
48.439284 22.000000
48.458766 25.000000
48.478248 28.000000
48.497731 30.000000
48.517213 23.000000
48.536696 34.000000
48.556178 23.000000
48.575660 25.000000
48.595143 27.000000
48.614625 28.000000
48.634107 29.000000
48.653590 19.000000
48.673072 27.000000
48.692555 29.000000
48.712037 26.000000
48.731519 19.000000
48.751002 22.000000
48.770484 29.000000
48.789966 19.000000
48.809449 18.000000
48.828931 21.000000
48.848413 17.000000
48.867896 22.000000
48.887378 23.000000
48.906861 23.000000
48.926343 13.000000
48.945825 23.000000
48.965308 26.000000
48.984790 22.000000
49.004272 13.000000
49.023755 30.000000
49.043237 25.000000
49.062720 26.000000
49.082202 12.000000
49.101684 15.000000
49.121167 21.000000
49.140649 18.000000
49.160131 21.000000
49.179614 24.000000
49.199096 26.000000
49.218578 26.000000
49.238061 22.000000
49.257543 34.000000
49.277026 23.000000
49.296508 21.000000
49.315990 26.000000
49.335473 23.000000
49.354955 18.000000
49.374437 20.000000
49.393920 25.000000
49.413402 23.000000
49.432885 24.000000
49.452367 13.000000
49.471849 24.000000
49.491332 26.000000
49.510814 19.000000
49.530296 19.000000
49.549779 22.000000
49.569261 21.000000
49.588743 19.000000
49.608226 19.000000
49.627708 27.000000
49.647191 30.000000
49.666673 21.000000
49.686155 23.000000
49.705638 29.000000
49.725120 25.000000
49.744602 27.000000
49.764085 24.000000
49.783567 27.000000
49.803050 28.000000
49.822532 36.000000
49.842014 30.000000
49.861497 30.000000
49.880979 34.000000
49.900461 39.000000
49.919944 32.000000
49.939426 49.000000
49.958908 58.000000
49.978391 77.000000
49.997873 109.000000
50.017356 133.000000
50.036838 260.000000
50.056320 444.000000
50.075803 616.000000
50.095285 778.000000
50.114767 873.000000
50.134250 805.000000
50.153732 524.000000
50.173215 372.000000
50.192697 371.000000
50.212179 412.000000
50.231662 424.000000
50.251144 460.000000
50.270626 366.000000
50.290109 254.000000
50.309591 147.000000
50.329074 99.000000
50.348556 63.000000
50.368038 56.000000
50.387521 36.000000
50.407003 47.000000
50.426485 28.000000
50.445968 32.000000
50.465450 39.000000
50.484932 33.000000
50.504415 36.000000
50.523897 34.000000
50.543380 51.000000
50.562862 56.000000
50.582344 66.000000
50.601827 72.000000
50.621309 67.000000
50.640791 53.000000
50.660274 18.000000
50.679756 38.000000
50.699239 34.000000
50.718721 43.000000
50.738203 49.000000
50.757686 44.000000
50.777168 24.000000
50.796650 26.000000
50.816133 35.000000
50.835615 23.000000
50.855097 35.000000
50.874580 22.000000
50.894062 18.000000
50.913545 24.000000
50.933027 23.000000
50.952509 24.000000
50.971992 25.000000
50.991474 24.000000
51.010956 25.000000
51.030439 24.000000
51.049921 21.000000
51.069404 17.000000
51.088886 26.000000
51.108368 21.000000
51.127851 11.000000
51.147333 15.000000
51.166815 20.000000
51.186298 24.000000
51.205780 20.000000
51.225262 20.000000
51.244745 22.000000
51.264227 24.000000
51.283710 19.000000
51.303192 17.000000
51.322674 15.000000
51.342157 19.000000
51.361639 25.000000
51.381121 15.000000
51.400604 14.000000
51.420086 23.000000
51.439569 17.000000
51.459051 14.000000
51.478533 24.000000
51.498016 15.000000
51.517498 22.000000
51.536980 24.000000
51.556463 19.000000
51.575945 14.000000
51.595427 17.000000
51.614910 19.000000
51.634392 13.000000
51.653875 20.000000
51.673357 21.000000
51.692839 20.000000
51.712322 22.000000
51.731804 22.000000
51.751286 21.000000
51.770769 24.000000
51.790251 24.000000
51.809734 19.000000
51.829216 25.000000
51.848698 25.000000
51.868181 26.000000
51.887663 18.000000
51.907145 25.000000
51.926628 22.000000
51.946110 25.000000
51.965593 19.000000
51.985075 19.000000
52.004557 28.000000
52.024040 17.000000
52.043522 17.000000
52.063004 22.000000
52.082487 19.000000
52.101969 17.000000
52.121451 19.000000
52.140934 21.000000
52.160416 29.000000
52.179899 20.000000
52.199381 17.000000
52.218863 16.000000
52.238346 23.000000
52.257828 18.000000
52.277310 20.000000
52.296793 18.000000
52.316275 22.000000
52.335758 17.000000
52.355240 26.000000
52.374722 26.000000
52.394205 20.000000
52.413687 18.000000
52.433169 24.000000
52.452652 21.000000
52.472134 18.000000
52.491616 19.000000
52.511099 23.000000
52.530581 17.000000
52.550064 21.000000
52.569546 23.000000
52.589028 23.000000
52.608511 23.000000
52.627993 22.000000
52.647475 19.000000
52.666958 20.000000
52.686440 18.000000
52.705923 22.000000
52.725405 29.000000
52.744887 21.000000
52.764370 21.000000
52.783852 12.000000
52.803334 15.000000
52.822817 13.000000
52.842299 19.000000
52.861781 14.000000
52.881264 27.000000
52.900746 21.000000
52.920229 18.000000
52.939711 14.000000
52.959193 23.000000
52.978676 24.000000
52.998158 16.000000
53.017640 18.000000
53.037123 23.000000
53.056605 23.000000
53.076088 21.000000
53.095570 19.000000
53.115052 22.000000
53.134535 20.000000
53.154017 21.000000
53.173499 21.000000
53.192982 15.000000
53.212464 19.000000
53.231946 20.000000
53.251429 20.000000
53.270911 23.000000
53.290394 19.000000
53.309876 22.000000
53.329358 18.000000
53.348841 18.000000
53.368323 13.000000
53.387805 24.000000
53.407288 27.000000
53.426770 18.000000
53.446253 13.000000
53.465735 14.000000
53.485217 17.000000
53.504700 19.000000
53.524182 22.000000
53.543664 21.000000
53.563147 22.000000
53.582629 28.000000
53.602112 24.000000
53.621594 25.000000
53.641076 21.000000
53.660559 19.000000
53.680041 20.000000
53.699523 25.000000
53.719006 29.000000
53.738488 21.000000
53.757970 21.000000
53.777453 18.000000
53.796935 16.000000
53.816418 34.000000
53.835900 20.000000
53.855382 21.000000
53.874865 18.000000
53.894347 16.000000
53.913829 16.000000
53.933312 15.000000
53.952794 28.000000
53.972277 14.000000
53.991759 26.000000
54.011241 13.000000
54.030724 18.000000
54.050206 20.000000
54.069688 17.000000
54.089171 15.000000
54.108653 17.000000
54.128135 23.000000
54.147618 20.000000
54.167100 25.000000
54.186583 30.000000
54.206065 22.000000
54.225547 17.000000
54.245030 24.000000
54.264512 9.000000
54.283994 24.000000
54.303477 14.000000
54.322959 20.000000
54.342442 15.000000
54.361924 26.000000
54.381406 12.000000
54.400889 26.000000
54.420371 22.000000
54.439853 27.000000
54.459336 21.000000
54.478818 23.000000
54.498300 16.000000
54.517783 25.000000
54.537265 23.000000
54.556748 18.000000
54.576230 22.000000
54.595712 35.000000
54.615195 25.000000
54.634677 23.000000
54.654159 21.000000
54.673642 23.000000
54.693124 37.000000
54.712607 41.000000
54.732089 46.000000
54.751571 65.000000
54.771054 89.000000
54.790536 128.000000
54.810018 207.000000
54.829501 242.000000
54.848983 272.000000
54.868465 300.000000
54.887948 231.000000
54.907430 152.000000
54.926913 118.000000
54.946395 138.000000
54.965877 113.000000
54.985360 158.000000
55.004842 154.000000
55.024324 138.000000
55.043807 116.000000
55.063289 83.000000
55.082772 53.000000
55.102254 30.000000
55.121736 43.000000
55.141219 27.000000
55.160701 27.000000
55.180183 41.000000
55.199666 36.000000
55.219148 42.000000
55.238630 51.000000
55.258113 85.000000
55.277595 99.000000
55.297078 134.000000
55.316560 140.000000
55.336042 110.000000
55.355525 73.000000
55.375007 50.000000
55.394489 57.000000
55.413972 49.000000
55.433454 71.000000
55.452937 77.000000
55.472419 79.000000
55.491901 40.000000
55.511384 40.000000
55.530866 28.000000
55.550348 27.000000
55.569831 23.000000
55.589313 22.000000
55.608796 19.000000
55.628278 22.000000
55.647760 19.000000
55.667243 22.000000
55.686725 36.000000
55.706207 18.000000
55.725690 21.000000
55.745172 17.000000
55.764654 19.000000
55.784137 22.000000
55.803619 22.000000
55.823102 24.000000
55.842584 25.000000
55.862066 16.000000
55.881549 17.000000
55.901031 20.000000
55.920513 16.000000
55.939996 17.000000
55.959478 23.000000
55.978961 20.000000
55.998443 18.000000
56.017925 23.000000
56.037408 15.000000
56.056890 13.000000
56.076372 15.000000
56.095855 12.000000
56.115337 18.000000
56.134819 15.000000
56.154302 20.000000
56.173784 17.000000
56.193267 18.000000
56.212749 13.000000
56.232231 15.000000
56.251714 15.000000
56.271196 17.000000
56.290678 19.000000
56.310161 22.000000
56.329643 22.000000
56.349126 15.000000
56.368608 21.000000
56.388090 19.000000
56.407573 19.000000
56.427055 11.000000
56.446537 18.000000
56.466020 21.000000
56.485502 21.000000
56.504984 20.000000
56.524467 19.000000
56.543949 21.000000
56.563432 15.000000
56.582914 18.000000
56.602396 13.000000
56.621879 21.000000
56.641361 9.000000
56.660843 22.000000
56.680326 27.000000
56.699808 17.000000
56.719291 15.000000
56.738773 17.000000
56.758255 16.000000
56.777738 22.000000
56.797220 18.000000
56.816702 20.000000
56.836185 18.000000
56.855667 12.000000
56.875149 21.000000
56.894632 16.000000
56.914114 18.000000
56.933597 23.000000
56.953079 16.000000
56.972561 24.000000
56.992044 24.000000
57.011526 14.000000
57.031008 20.000000
57.050491 25.000000
57.069973 19.000000
57.089456 20.000000
57.108938 25.000000
57.128420 24.000000
57.147903 19.000000
57.167385 32.000000
57.186867 26.000000
57.206350 37.000000
57.225832 29.000000
57.245315 25.000000
57.264797 18.000000
57.284279 22.000000
57.303762 24.000000
57.323244 36.000000
57.342726 16.000000
57.362209 25.000000
57.381691 20.000000
57.401173 22.000000
57.420656 14.000000
57.440138 20.000000
57.459621 18.000000
57.479103 20.000000
57.498585 15.000000
57.518068 14.000000
57.537550 22.000000
57.557032 19.000000
57.576515 18.000000
57.595997 22.000000
57.615480 22.000000
57.634962 15.000000
57.654444 22.000000
57.673927 14.000000
57.693409 12.000000
57.712891 22.000000
57.732374 16.000000
57.751856 27.000000
57.771338 22.000000
57.790821 12.000000
57.810303 17.000000
57.829786 18.000000
57.849268 22.000000
57.868750 23.000000
57.888233 26.000000
57.907715 15.000000
57.927197 27.000000
57.946680 22.000000
57.966162 20.000000
57.985645 15.000000
58.005127 25.000000
58.024609 16.000000
58.044092 18.000000
58.063574 20.000000
58.083056 23.000000
58.102539 13.000000
58.122021 25.000000
58.141503 14.000000
58.160986 25.000000
58.180468 20.000000
58.199951 17.000000
58.219433 20.000000
58.238915 25.000000
58.258398 22.000000
58.277880 15.000000
58.297362 18.000000
58.316845 22.000000
58.336327 20.000000
58.355810 17.000000
58.375292 15.000000
58.394774 16.000000
58.414257 15.000000
58.433739 24.000000
58.453221 25.000000
58.472704 26.000000
58.492186 25.000000
58.511668 25.000000
58.531151 25.000000
58.550633 16.000000
58.570116 22.000000
58.589598 14.000000
58.609080 23.000000
58.628563 22.000000
58.648045 32.000000
58.667527 23.000000
58.687010 23.000000
58.706492 16.000000
58.725975 21.000000
58.745457 23.000000
58.764939 22.000000
58.784422 14.000000
58.803904 17.000000
58.823386 27.000000
58.842869 17.000000
58.862351 19.000000
58.881834 15.000000
58.901316 19.000000
58.920798 16.000000
58.940281 9.000000
58.959763 20.000000
58.979245 18.000000
58.998728 12.000000
59.018210 19.000000
59.037692 20.000000
59.057175 20.000000
59.076657 25.000000
59.096140 21.000000
59.115622 20.000000
59.135104 22.000000
59.154587 18.000000
59.174069 18.000000
59.193551 18.000000
59.213034 19.000000
59.232516 20.000000
59.251999 22.000000
59.271481 17.000000
59.290963 20.000000
59.310446 23.000000
59.329928 20.000000
59.349410 21.000000
59.368893 22.000000
59.388375 19.000000
59.407857 27.000000
59.427340 27.000000
59.446822 26.000000
59.466305 19.000000
59.485787 30.000000
59.505269 23.000000
59.524752 20.000000
59.544234 29.000000
59.563716 30.000000
59.583199 26.000000
59.602681 28.000000
59.622164 29.000000
59.641646 44.000000
59.661128 28.000000
59.680611 36.000000
59.700093 36.000000
59.719575 38.000000
59.739058 38.000000
59.758540 43.000000
59.778022 55.000000
59.797505 64.000000
59.816987 126.000000
59.836470 182.000000
59.855952 228.000000
59.875434 359.000000
59.894917 615.000000
59.914399 719.000000
59.933881 833.000000
59.953364 761.000000
59.972846 580.000000
59.992329 355.000000
60.011811 279.000000
60.031293 251.000000
60.050776 304.000000
60.070258 357.000000
60.089740 445.000000
60.109223 410.000000
60.128705 348.000000
60.148187 234.000000
60.167670 139.000000
60.187152 105.000000
60.206635 53.000000
60.226117 40.000000
60.245599 47.000000
60.265082 36.000000
60.284564 33.000000
60.304046 32.000000
60.323529 28.000000
60.343011 20.000000
60.362494 34.000000
60.381976 31.000000
60.401458 32.000000
60.420941 25.000000
60.440423 25.000000
60.459905 31.000000
60.479388 24.000000
60.498870 18.000000
60.518352 21.000000
60.537835 28.000000
60.557317 21.000000
60.576800 20.000000
60.596282 22.000000
60.615764 22.000000
60.635247 17.000000
60.654729 22.000000
60.674211 23.000000
60.693694 28.000000
60.713176 27.000000
60.732659 19.000000
60.752141 20.000000
60.771623 17.000000
60.791106 16.000000
60.810588 25.000000
60.830070 19.000000
60.849553 16.000000
60.869035 18.000000
60.888518 21.000000
60.908000 11.000000
60.927482 21.000000
60.946965 14.000000
60.966447 26.000000
60.985929 23.000000
61.005412 19.000000
61.024894 28.000000
61.044376 27.000000
61.063859 16.000000
61.083341 23.000000
61.102824 21.000000
61.122306 17.000000
61.141788 22.000000
61.161271 19.000000
61.180753 18.000000
61.200235 24.000000
61.219718 22.000000
61.239200 16.000000
61.258683 16.000000
61.278165 13.000000
61.297647 15.000000
61.317130 18.000000
61.336612 16.000000
61.356094 21.000000
61.375577 24.000000
61.395059 22.000000
61.414541 17.000000
61.434024 15.000000
61.453506 15.000000
61.472989 18.000000
61.492471 18.000000
61.511953 14.000000
61.531436 18.000000
61.550918 15.000000
61.570400 24.000000
61.589883 13.000000
61.609365 14.000000
61.628848 22.000000
61.648330 13.000000
61.667812 20.000000
61.687295 14.000000
61.706777 10.000000
61.726259 27.000000
61.745742 19.000000
61.765224 14.000000
61.784706 16.000000
61.804189 14.000000
61.823671 19.000000
61.843154 28.000000
61.862636 22.000000
61.882118 18.000000
61.901601 16.000000
61.921083 13.000000
61.940565 21.000000
61.960048 18.000000
61.979530 18.000000
61.999013 18.000000
62.018495 12.000000
62.037977 21.000000
62.057460 26.000000
62.076942 21.000000
62.096424 23.000000
62.115907 15.000000
62.135389 19.000000
62.154871 12.000000
62.174354 11.000000
62.193836 23.000000
62.213319 17.000000
62.232801 13.000000
62.252283 21.000000
62.271766 25.000000
62.291248 22.000000
62.310730 17.000000
62.330213 19.000000
62.349695 19.000000
62.369178 22.000000
62.388660 23.000000
62.408142 21.000000
62.427625 11.000000
62.447107 15.000000
62.466589 14.000000
62.486072 20.000000
62.505554 11.000000
62.525037 14.000000
62.544519 12.000000
62.564001 18.000000
62.583484 18.000000
62.602966 16.000000
62.622448 17.000000
62.641931 18.000000
62.661413 20.000000
62.680895 16.000000
62.700378 13.000000
62.719860 14.000000
62.739343 14.000000
62.758825 9.000000
62.778307 23.000000
62.797790 22.000000
62.817272 16.000000
62.836754 21.000000
62.856237 14.000000
62.875719 22.000000
62.895202 14.000000
62.914684 13.000000
62.934166 10.000000
62.953649 13.000000
62.973131 14.000000
62.992613 19.000000
63.012096 18.000000
63.031578 10.000000
63.051060 23.000000
63.070543 22.000000
63.090025 20.000000
63.109508 17.000000
63.128990 18.000000
63.148472 17.000000
63.167955 15.000000
63.187437 13.000000
63.206919 15.000000
63.226402 17.000000
63.245884 23.000000
63.265367 15.000000
63.284849 15.000000
63.304331 15.000000
63.323814 19.000000
63.343296 28.000000
63.362778 18.000000
63.382261 15.000000
63.401743 14.000000
63.421225 15.000000
63.440708 15.000000
63.460190 24.000000
63.479673 18.000000
63.499155 15.000000
63.518637 17.000000
63.538120 29.000000
63.557602 13.000000
63.577084 8.000000
63.596567 15.000000
63.616049 30.000000
63.635532 30.000000
63.655014 20.000000
63.674496 17.000000
63.693979 15.000000
63.713461 20.000000
63.732943 18.000000
63.752426 26.000000
63.771908 16.000000
63.791390 22.000000
63.810873 22.000000
63.830355 17.000000
63.849838 17.000000
63.869320 27.000000
63.888802 24.000000
63.908285 30.000000
63.927767 46.000000
63.947249 56.000000
63.966732 81.000000
63.986214 106.000000
64.005697 97.000000
64.025179 121.000000
64.044661 71.000000
64.064144 67.000000
64.083626 46.000000
64.103108 37.000000
64.122591 45.000000
64.142073 43.000000
64.161556 45.000000
64.181038 59.000000
64.200520 76.000000
64.220003 45.000000
64.239485 44.000000
64.258967 42.000000
64.278450 23.000000
64.297932 18.000000
64.317414 16.000000
64.336897 19.000000
64.356379 25.000000
64.375862 14.000000
64.395344 22.000000
64.414826 20.000000
64.434309 20.000000
64.453791 23.000000
64.473273 18.000000
64.492756 15.000000
64.512238 19.000000
64.531721 22.000000
64.551203 13.000000
64.570685 13.000000
64.590168 14.000000
64.609650 11.000000
64.629132 10.000000
64.648615 25.000000
64.668097 23.000000
64.687579 15.000000
64.707062 15.000000
64.726544 18.000000
64.746027 17.000000
64.765509 14.000000
64.784991 19.000000
64.804474 15.000000
64.823956 21.000000
64.843438 19.000000
64.862921 20.000000
64.882403 22.000000
64.901886 16.000000
64.921368 19.000000
64.940850 23.000000
64.960333 21.000000
64.979815 22.000000
64.999297 19.000000
65.018780 14.000000
65.038262 12.000000
65.057744 14.000000
65.077227 15.000000
65.096709 19.000000
65.116192 17.000000
65.135674 13.000000
65.155156 17.000000
65.174639 22.000000
65.194121 17.000000
65.213603 18.000000
65.233086 27.000000
65.252568 18.000000
65.272051 22.000000
65.291533 15.000000
65.311015 16.000000
65.330498 21.000000
65.349980 25.000000
65.369462 25.000000
65.388945 19.000000
65.408427 25.000000
65.427909 12.000000
65.447392 22.000000
65.466874 18.000000
65.486357 25.000000
65.505839 27.000000
65.525321 27.000000
65.544804 19.000000
65.564286 21.000000
65.583768 35.000000
65.603251 31.000000
65.622733 36.000000
65.642216 29.000000
65.661698 42.000000
65.681180 40.000000
65.700663 42.000000
65.720145 70.000000
65.739627 79.000000
65.759110 82.000000
65.778592 101.000000
65.798075 58.000000
65.817557 53.000000
65.837039 46.000000
65.856522 42.000000
65.876004 48.000000
65.895486 67.000000
65.914969 37.000000
65.934451 58.000000
65.953933 51.000000
65.973416 53.000000
65.992898 41.000000
66.012381 29.000000
66.031863 29.000000
66.051345 21.000000
66.070828 25.000000
66.090310 21.000000
66.109792 21.000000
66.129275 17.000000
66.148757 22.000000
66.168240 12.000000
66.187722 24.000000
66.207204 17.000000
66.226687 24.000000
66.246169 13.000000
66.265651 16.000000
66.285134 24.000000
66.304616 19.000000
66.324098 26.000000
66.343581 15.000000
66.363063 24.000000
66.382546 25.000000
66.402028 13.000000
66.421510 14.000000
66.440993 28.000000
66.460475 16.000000
66.479957 19.000000
66.499440 28.000000
66.518922 19.000000
66.538405 19.000000
66.557887 17.000000
66.577369 23.000000
66.596852 19.000000
66.616334 19.000000
66.635816 22.000000
66.655299 15.000000
66.674781 19.000000
66.694263 18.000000
66.713746 19.000000
66.733228 29.000000
66.752711 25.000000
66.772193 21.000000
66.791675 17.000000
66.811158 18.000000
66.830640 18.000000
66.850122 21.000000
66.869605 20.000000
66.889087 12.000000
66.908570 16.000000
66.928052 25.000000
66.947534 14.000000
66.967017 18.000000
66.986499 10.000000
67.005981 15.000000
67.025464 18.000000
67.044946 17.000000
67.064428 28.000000
67.083911 14.000000
67.103393 26.000000
67.122876 20.000000
67.142358 16.000000
67.161840 16.000000
67.181323 28.000000
67.200805 18.000000
67.220287 26.000000
67.239770 20.000000
67.259252 18.000000
67.278735 18.000000
67.298217 25.000000
67.317699 27.000000
67.337182 23.000000
67.356664 26.000000
67.376146 25.000000
67.395629 29.000000
67.415111 32.000000
67.434593 27.000000
67.454076 32.000000
67.473558 17.000000
67.493041 24.000000
67.512523 48.000000
67.532005 36.000000
67.551488 38.000000
67.570970 40.000000
67.590452 67.000000
67.609935 92.000000
67.629417 135.000000
67.648900 186.000000
67.668382 203.000000
67.687864 326.000000
67.707347 396.000000
67.726829 447.000000
67.746311 389.000000
67.765794 301.000000
67.785276 193.000000
67.804759 148.000000
67.824241 146.000000
67.843723 154.000000
67.863206 172.000000
67.882688 200.000000
67.902170 230.000000
67.921653 257.000000
67.941135 207.000000
67.960617 170.000000
67.980100 136.000000
67.999582 113.000000
68.019065 129.000000
68.038547 137.000000
68.058029 210.000000
68.077512 270.000000
68.096994 297.000000
68.116476 429.000000
68.135959 363.000000
68.155441 277.000000
68.174924 244.000000
68.194406 206.000000
68.213888 209.000000
68.233371 280.000000
68.252853 368.000000
68.272335 399.000000
68.291818 459.000000
68.311300 429.000000
68.330782 357.000000
68.350265 268.000000
68.369747 173.000000
68.389230 145.000000
68.408712 138.000000
68.428194 126.000000
68.447677 130.000000
68.467159 187.000000
68.486641 183.000000
68.506124 167.000000
68.525606 120.000000
68.545089 87.000000
68.564571 70.000000
68.584053 49.000000
68.603536 49.000000
68.623018 26.000000
68.642500 31.000000
68.661983 28.000000
68.681465 37.000000
68.700947 30.000000
68.720430 29.000000
68.739912 40.000000
68.759395 25.000000
68.778877 23.000000
68.798359 23.000000
68.817842 18.000000
68.837324 21.000000
68.856806 24.000000
68.876289 17.000000
68.895771 25.000000
68.915254 16.000000
68.934736 18.000000
68.954218 22.000000
68.973701 15.000000
68.993183 17.000000
69.012665 21.000000
69.032148 24.000000
69.051630 30.000000
69.071112 25.000000
69.090595 15.000000
69.110077 24.000000
69.129560 13.000000
69.149042 28.000000
69.168524 18.000000
69.188007 19.000000
69.207489 11.000000
69.226971 19.000000
69.246454 16.000000
69.265936 17.000000
69.285419 21.000000
69.304901 20.000000
69.324383 21.000000
69.343866 14.000000
69.363348 19.000000
69.382830 18.000000
69.402313 14.000000
69.421795 17.000000
69.441278 21.000000
69.460760 20.000000
69.480242 23.000000
69.499725 20.000000
69.519207 17.000000
69.538689 25.000000
69.558172 29.000000
69.577654 21.000000
69.597136 18.000000
69.616619 18.000000
69.636101 22.000000
69.655584 29.000000
69.675066 23.000000
69.694548 22.000000
69.714031 21.000000
69.733513 15.000000
69.752995 17.000000
69.772478 11.000000
69.791960 19.000000
69.811443 24.000000
69.830925 20.000000
69.850407 12.000000
69.869890 15.000000
69.889372 16.000000
69.908854 21.000000
69.928337 17.000000
69.947819 16.000000
69.967301 22.000000
69.986784 21.000000
70.006266 18.000000
70.025749 19.000000
