4.000000 1329.000000
4.019482 1260.000000
4.038965 1259.000000
4.058447 1155.000000
4.077929 1194.000000
4.097412 1172.000000
4.116894 1148.000000
4.136377 1135.000000
4.155859 1141.000000
4.175341 1133.000000
4.194824 1110.000000
4.214306 1074.000000
4.233788 1081.000000
4.253271 1058.000000
4.272753 1028.000000
4.292236 1061.000000
4.311718 1014.000000
4.331200 1013.000000
4.350683 1005.000000
4.370165 944.000000
4.389647 982.000000
4.409130 940.000000
4.428612 933.000000
4.448094 982.000000
4.467577 945.000000
4.487059 906.000000
4.506542 922.000000
4.526024 941.000000
4.545506 867.000000
4.564989 926.000000
4.584471 847.000000
4.603953 862.000000
4.623436 855.000000
4.642918 840.000000
4.662401 832.000000
4.681883 812.000000
4.701365 851.000000
4.720848 769.000000
4.740330 792.000000
4.759812 799.000000
4.779295 764.000000
4.798777 764.000000
4.818259 800.000000
4.837742 774.000000
4.857224 727.000000
4.876707 800.000000
4.896189 762.000000
4.915671 777.000000
4.935154 748.000000
4.954636 801.000000
4.974118 706.000000
4.993601 734.000000
5.013083 677.000000
5.032566 735.000000
5.052048 736.000000
5.071530 724.000000
5.091013 713.000000
5.110495 642.000000
5.129977 695.000000
5.149460 661.000000
5.168942 709.000000
5.188425 688.000000
5.207907 683.000000
5.227389 644.000000
5.246872 709.000000
5.266354 683.000000
5.285836 709.000000
5.305319 665.000000
5.324801 709.000000
5.344283 648.000000
5.363766 697.000000
5.383248 659.000000
5.402731 661.000000
5.422213 655.000000
5.441695 625.000000
5.461178 616.000000
5.480660 647.000000
5.500142 649.000000
5.519625 655.000000
5.539107 669.000000
5.558590 620.000000
5.578072 651.000000
5.597554 652.000000
5.617037 633.000000
5.636519 605.000000
5.656001 614.000000
5.675484 595.000000
5.694966 602.000000
5.714448 590.000000
5.733931 591.000000
5.753413 575.000000
5.772896 630.000000
5.792378 578.000000
5.811860 585.000000
5.831343 590.000000
5.850825 577.000000
5.870307 589.000000
5.889790 608.000000
5.909272 563.000000
5.928755 561.000000
5.948237 589.000000
5.967719 579.000000
5.987202 576.000000
6.006684 574.000000
6.026166 571.000000
6.045649 549.000000
6.065131 561.000000
6.084613 531.000000
6.104096 591.000000
6.123578 555.000000
6.143061 499.000000
6.162543 534.000000
6.182025 556.000000
6.201508 510.000000
6.220990 534.000000
6.240472 536.000000
6.259955 469.000000
6.279437 493.000000
6.298920 539.000000
6.318402 536.000000
6.337884 510.000000
6.357367 516.000000
6.376849 526.000000
6.396331 536.000000
6.415814 518.000000
6.435296 534.000000
6.454778 518.000000
6.474261 550.000000
6.493743 504.000000
6.513226 493.000000
6.532708 495.000000
6.552190 487.000000
6.571673 521.000000
6.591155 487.000000
6.610637 514.000000
6.630120 473.000000
6.649602 505.000000
6.669085 470.000000
6.688567 469.000000
6.708049 497.000000
6.727532 456.000000
6.747014 459.000000
6.766496 510.000000
6.785979 461.000000
6.805461 474.000000
6.824944 486.000000
6.844426 473.000000
6.863908 497.000000
6.883391 452.000000
6.902873 499.000000
6.922355 485.000000
6.941838 461.000000
6.961320 452.000000
6.980802 423.000000
7.000285 491.000000
7.019767 489.000000
7.039250 443.000000
7.058732 457.000000
7.078214 486.000000
7.097697 462.000000
7.117179 426.000000
7.136661 486.000000
7.156144 434.000000
7.175626 447.000000
7.195109 467.000000
7.214591 466.000000
7.234073 437.000000
7.253556 450.000000
7.273038 465.000000
7.292520 478.000000
7.312003 451.000000
7.331485 434.000000
7.350967 453.000000
7.370450 387.000000
7.389932 459.000000
7.409415 434.000000
7.428897 444.000000
7.448379 464.000000
7.467862 425.000000
7.487344 435.000000
7.506826 384.000000
7.526309 406.000000
7.545791 426.000000
7.565274 425.000000
7.584756 445.000000
7.604238 412.000000
7.623721 410.000000
7.643203 448.000000
7.662685 433.000000
7.682168 415.000000
7.701650 400.000000
7.721132 425.000000
7.740615 400.000000
7.760097 427.000000
7.779580 468.000000
7.799062 424.000000
7.818544 441.000000
7.838027 413.000000
7.857509 403.000000
7.876991 412.000000
7.896474 412.000000
7.915956 431.000000
7.935439 406.000000
7.954921 395.000000
7.974403 448.000000
7.993886 387.000000
8.013368 379.000000
8.032850 400.000000
8.052333 404.000000
8.071815 417.000000
8.091297 377.000000
8.110780 395.000000
8.130262 429.000000
8.149745 404.000000
8.169227 396.000000
8.188709 390.000000
8.208192 407.000000
8.227674 421.000000
8.247156 413.000000
8.266639 423.000000
8.286121 419.000000
8.305604 390.000000
8.325086 376.000000
8.344568 383.000000
8.364051 434.000000
8.383533 440.000000
8.403015 386.000000
8.422498 405.000000
8.441980 407.000000
8.461463 379.000000
8.480945 428.000000
8.500427 394.000000
8.519910 414.000000
8.539392 404.000000
8.558874 354.000000
8.578357 360.000000
8.597839 410.000000
8.617321 378.000000
8.636804 372.000000
8.656286 395.000000
8.675769 427.000000
8.695251 345.000000
8.714733 375.000000
8.734216 391.000000
8.753698 369.000000
8.773180 383.000000
8.792663 381.000000
8.812145 388.000000
8.831628 374.000000
8.851110 402.000000
8.870592 405.000000
8.890075 379.000000
8.909557 389.000000
8.929039 361.000000
8.948522 349.000000
8.968004 386.000000
8.987486 377.000000
9.006969 373.000000
9.026451 354.000000
9.045934 370.000000
9.065416 366.000000
9.084898 361.000000
9.104381 374.000000
9.123863 394.000000
9.143345 377.000000
9.162828 359.000000
9.182310 381.000000
9.201793 366.000000
9.221275 372.000000
9.240757 362.000000
9.260240 371.000000
9.279722 341.000000
9.299204 347.000000
9.318687 354.000000
9.338169 351.000000
9.357651 342.000000
9.377134 338.000000
9.396616 330.000000
9.416099 351.000000
9.435581 387.000000
9.455063 361.000000
9.474546 349.000000
9.494028 338.000000
9.513510 373.000000
9.532993 386.000000
9.552475 360.000000
9.571958 337.000000
9.591440 340.000000
9.610922 370.000000
9.630405 351.000000
9.649887 343.000000
9.669369 340.000000
9.688852 369.000000
9.708334 370.000000
9.727816 326.000000
9.747299 370.000000
9.766781 348.000000
9.786264 364.000000
9.805746 333.000000
9.825228 341.000000
9.844711 344.000000
9.864193 329.000000
9.883675 358.000000
9.903158 356.000000
9.922640 339.000000
9.942123 358.000000
9.961605 332.000000
9.981087 369.000000
10.000570 346.000000
10.020052 354.000000
10.039534 316.000000
10.059017 332.000000
10.078499 345.000000
10.097982 380.000000
10.117464 373.000000
10.136946 358.000000
10.156429 371.000000
10.175911 401.000000
10.195393 348.000000
10.214876 348.000000
10.234358 355.000000
10.253840 329.000000
10.273323 330.000000
10.292805 346.000000
10.312288 353.000000
10.331770 311.000000
10.351252 349.000000
10.370735 328.000000
10.390217 362.000000
10.409699 334.000000
10.429182 349.000000
10.448664 314.000000
10.468147 362.000000
10.487629 357.000000
10.507111 350.000000
10.526594 362.000000
10.546076 328.000000
10.565558 316.000000
10.585041 341.000000
10.604523 357.000000
10.624005 355.000000
10.643488 342.000000
10.662970 340.000000
10.682453 370.000000
10.701935 328.000000
10.721417 325.000000
10.740900 349.000000
10.760382 338.000000
10.779864 298.000000
10.799347 338.000000
10.818829 323.000000
10.838312 318.000000
10.857794 354.000000
10.877276 335.000000
10.896759 334.000000
10.916241 295.000000
10.935723 334.000000
10.955206 352.000000
10.974688 349.000000
10.994170 302.000000
11.013653 300.000000
11.033135 346.000000
11.052618 307.000000
11.072100 340.000000
11.091582 349.000000
11.111065 313.000000
11.130547 311.000000
11.150029 311.000000
11.169512 306.000000
11.188994 323.000000
11.208477 307.000000
11.227959 313.000000
11.247441 338.000000
11.266924 331.000000
11.286406 320.000000
11.305888 321.000000
11.325371 313.000000
11.344853 326.000000
11.364335 329.000000
11.383818 282.000000
11.403300 304.000000
11.422783 297.000000
11.442265 303.000000
11.461747 307.000000
11.481230 311.000000
11.500712 331.000000
11.520194 309.000000
11.539677 282.000000
11.559159 338.000000
11.578642 315.000000
11.598124 317.000000
11.617606 307.000000
11.637089 313.000000
11.656571 295.000000
11.676053 342.000000
11.695536 324.000000
11.715018 310.000000
11.734500 331.000000
11.753983 299.000000
11.773465 302.000000
11.792948 305.000000
11.812430 302.000000
11.831912 274.000000
11.851395 294.000000
11.870877 311.000000
11.890359 311.000000
11.909842 285.000000
11.929324 284.000000
11.948807 338.000000
11.968289 291.000000
11.987771 258.000000
12.007254 297.000000
12.026736 295.000000
12.046218 304.000000
12.065701 291.000000
12.085183 290.000000
12.104666 275.000000
12.124148 304.000000
12.143630 294.000000
12.163113 297.000000
12.182595 282.000000
12.202077 321.000000
12.221560 298.000000
12.241042 300.000000
12.260524 279.000000
12.280007 264.000000
12.299489 320.000000
12.318972 314.000000
12.338454 278.000000
12.357936 296.000000
12.377419 269.000000
12.396901 318.000000
12.416383 334.000000
12.435866 277.000000
12.455348 291.000000
12.474831 265.000000
12.494313 288.000000
12.513795 279.000000
12.533278 327.000000
12.552760 280.000000
12.572242 273.000000
12.591725 272.000000
12.611207 260.000000
12.630689 304.000000
12.650172 297.000000
12.669654 306.000000
12.689137 267.000000
12.708619 295.000000
12.728101 285.000000
12.747584 316.000000
12.767066 301.000000
12.786548 279.000000
12.806031 281.000000
12.825513 296.000000
12.844996 292.000000
12.864478 311.000000
12.883960 275.000000
12.903443 305.000000
12.922925 276.000000
12.942407 270.000000
12.961890 276.000000
12.981372 283.000000
13.000854 285.000000
13.020337 259.000000
13.039819 278.000000
13.059302 265.000000
13.078784 269.000000
13.098266 275.000000
13.117749 274.000000
13.137231 270.000000
13.156713 289.000000
13.176196 279.000000
13.195678 299.000000
13.215161 282.000000
13.234643 262.000000
13.254125 261.000000
13.273608 281.000000
13.293090 251.000000
13.312572 275.000000
13.332055 266.000000
13.351537 248.000000
13.371019 267.000000
13.390502 298.000000
13.409984 274.000000
13.429467 285.000000
13.448949 297.000000
13.468431 266.000000
13.487914 259.000000
13.507396 256.000000
13.526878 257.000000
13.546361 268.000000
13.565843 269.000000
13.585326 282.000000
13.604808 272.000000
13.624290 276.000000
13.643773 254.000000
13.663255 267.000000
13.682737 260.000000
13.702220 250.000000
13.721702 242.000000
13.741185 254.000000
13.760667 241.000000
13.780149 255.000000
13.799632 256.000000
13.819114 253.000000
13.838596 244.000000
13.858079 267.000000
13.877561 259.000000
13.897043 253.000000
13.916526 244.000000
13.936008 224.000000
13.955491 249.000000
13.974973 234.000000
13.994455 244.000000
14.013938 227.000000
14.033420 235.000000
14.052902 228.000000
14.072385 276.000000
14.091867 239.000000
14.111350 236.000000
14.130832 259.000000
14.150314 236.000000
14.169797 264.000000
14.189279 257.000000
14.208761 252.000000
14.228244 222.000000
14.247726 252.000000
14.267208 255.000000
14.286691 234.000000
14.306173 291.000000
14.325656 238.000000
14.345138 256.000000
14.364620 228.000000
14.384103 263.000000
14.403585 251.000000
14.423067 275.000000
14.442550 221.000000
14.462032 238.000000
14.481515 229.000000
14.500997 246.000000
14.520479 269.000000
14.539962 244.000000
14.559444 248.000000
14.578926 279.000000
14.598409 239.000000
14.617891 242.000000
14.637373 235.000000
14.656856 234.000000
14.676338 233.000000
14.695821 259.000000
14.715303 255.000000
14.734785 220.000000
14.754268 235.000000
14.773750 238.000000
14.793232 226.000000
14.812715 262.000000
14.832197 258.000000
14.851680 236.000000
14.871162 243.000000
14.890644 232.000000
14.910127 263.000000
14.929609 223.000000
14.949091 225.000000
14.968574 238.000000
14.988056 245.000000
15.007538 254.000000
15.027021 250.000000
15.046503 212.000000
15.065986 231.000000
15.085468 206.000000
15.104950 238.000000
15.124433 229.000000
15.143915 234.000000
15.163397 237.000000
15.182880 232.000000
15.202362 230.000000
15.221845 237.000000
15.241327 226.000000
15.260809 242.000000
15.280292 201.000000
15.299774 230.000000
15.319256 211.000000
15.338739 215.000000
15.358221 199.000000
15.377704 244.000000
15.397186 214.000000
15.416668 198.000000
15.436151 230.000000
15.455633 233.000000
15.475115 220.000000
15.494598 226.000000
15.514080 221.000000
15.533562 218.000000
15.553045 192.000000
15.572527 249.000000
15.592010 219.000000
15.611492 210.000000
15.630974 225.000000
15.650457 220.000000
15.669939 214.000000
15.689421 223.000000
15.708904 213.000000
15.728386 220.000000
15.747869 202.000000
15.767351 240.000000
15.786833 193.000000
15.806316 241.000000
15.825798 224.000000
15.845280 207.000000
15.864763 195.000000
15.884245 247.000000
15.903727 216.000000
15.923210 208.000000
15.942692 220.000000
15.962175 221.000000
15.981657 216.000000
16.001139 208.000000
16.020622 251.000000
16.040104 234.000000
16.059586 223.000000
16.079069 231.000000
16.098551 240.000000
16.118034 231.000000
16.137516 203.000000
16.156998 204.000000
16.176481 228.000000
16.195963 215.000000
16.215445 213.000000
16.234928 187.000000
16.254410 199.000000
16.273892 227.000000
16.293375 210.000000
16.312857 241.000000
16.332340 217.000000
16.351822 214.000000
16.371304 236.000000
16.390787 188.000000
16.410269 215.000000
16.429751 188.000000
16.449234 224.000000
16.468716 197.000000
16.488199 225.000000
16.507681 204.000000
16.527163 180.000000
16.546646 198.000000
16.566128 229.000000
16.585610 213.000000
16.605093 207.000000
16.624575 182.000000
16.644057 201.000000
16.663540 229.000000
16.683022 182.000000
16.702505 192.000000
16.721987 224.000000
16.741469 204.000000
16.760952 229.000000
16.780434 218.000000
16.799916 224.000000
16.819399 205.000000
16.838881 228.000000
16.858364 198.000000
16.877846 197.000000
16.897328 207.000000
16.916811 202.000000
16.936293 207.000000
16.955775 212.000000
16.975258 194.000000
16.994740 196.000000
17.014222 179.000000
17.033705 199.000000
17.053187 203.000000
17.072670 200.000000
17.092152 187.000000
17.111634 223.000000
17.131117 199.000000
17.150599 194.000000
17.170081 213.000000
17.189564 177.000000
17.209046 204.000000
17.228529 202.000000
17.248011 209.000000
17.267493 202.000000
17.286976 204.000000
17.306458 173.000000
17.325940 185.000000
17.345423 199.000000
17.364905 217.000000
17.384388 198.000000
17.403870 182.000000
17.423352 190.000000
17.442835 186.000000
17.462317 192.000000
17.481799 200.000000
17.501282 191.000000
17.520764 200.000000
17.540246 229.000000
17.559729 200.000000
17.579211 173.000000
17.598694 199.000000
17.618176 174.000000
17.637658 219.000000
17.657141 191.000000
17.676623 201.000000
17.696105 215.000000
17.715588 199.000000
17.735070 204.000000
17.754553 169.000000
17.774035 187.000000
17.793517 174.000000
17.813000 205.000000
17.832482 200.000000
17.851964 185.000000
17.871447 224.000000
17.890929 194.000000
17.910411 182.000000
17.929894 195.000000
17.949376 191.000000
17.968859 191.000000
17.988341 203.000000
18.007823 196.000000
18.027306 170.000000
18.046788 183.000000
18.066270 184.000000
18.085753 217.000000
18.105235 183.000000
18.124718 191.000000
18.144200 195.000000
18.163682 192.000000
18.183165 175.000000
18.202647 180.000000
18.222129 184.000000
18.241612 209.000000
18.261094 181.000000
18.280576 179.000000
18.300059 173.000000
18.319541 197.000000
18.339024 197.000000
18.358506 227.000000
18.377988 198.000000
18.397471 173.000000
18.416953 188.000000
18.436435 204.000000
18.455918 210.000000
18.475400 167.000000
18.494883 200.000000
18.514365 198.000000
18.533847 181.000000
18.553330 196.000000
18.572812 197.000000
18.592294 189.000000
18.611777 192.000000
18.631259 159.000000
18.650741 184.000000
18.670224 196.000000
18.689706 193.000000
18.709189 180.000000
18.728671 191.000000
18.748153 215.000000
18.767636 202.000000
18.787118 241.000000
18.806600 239.000000
18.826083 217.000000
18.845565 203.000000
18.865048 192.000000
18.884530 186.000000
18.904012 194.000000
18.923495 171.000000
18.942977 180.000000
18.962459 180.000000
18.981942 170.000000
19.001424 176.000000
19.020907 157.000000
19.040389 201.000000
19.059871 144.000000
19.079354 181.000000
19.098836 184.000000
19.118318 167.000000
19.137801 193.000000
19.157283 192.000000
19.176765 176.000000
19.196248 162.000000
19.215730 183.000000
19.235213 156.000000
19.254695 192.000000
19.274177 183.000000
19.293660 164.000000
19.313142 172.000000
19.332624 166.000000
19.352107 175.000000
19.371589 184.000000
19.391072 183.000000
19.410554 188.000000
19.430036 179.000000
19.449519 175.000000
19.469001 192.000000
19.488483 166.000000
19.507966 188.000000
19.527448 161.000000
19.546930 184.000000
19.566413 188.000000
19.585895 189.000000
19.605378 197.000000
19.624860 165.000000
19.644342 185.000000
19.663825 217.000000
19.683307 214.000000
19.702789 196.000000
19.722272 192.000000
19.741754 164.000000
19.761237 182.000000
19.780719 178.000000
19.800201 185.000000
19.819684 180.000000
19.839166 181.000000
19.858648 191.000000
19.878131 202.000000
19.897613 177.000000
19.917095 173.000000
19.936578 187.000000
19.956060 200.000000
19.975543 183.000000
19.995025 180.000000
20.014507 192.000000
20.033990 166.000000
20.053472 162.000000
20.072954 197.000000
20.092437 170.000000
20.111919 168.000000
20.131402 219.000000
20.150884 225.000000
20.170366 209.000000
20.189849 222.000000
20.209331 235.000000
20.228813 229.000000
20.248296 222.000000
20.267778 210.000000
20.287260 238.000000
20.306743 252.000000
20.326225 242.000000
20.345708 235.000000
20.365190 253.000000
20.384672 214.000000
20.404155 221.000000
20.423637 231.000000
20.443119 236.000000
20.462602 255.000000
20.482084 261.000000
20.501567 246.000000
20.521049 267.000000
20.540531 279.000000
20.560014 264.000000
20.579496 246.000000
20.598978 284.000000
20.618461 283.000000
20.637943 301.000000
20.657426 391.000000
20.676908 429.000000
20.696390 544.000000
20.715873 820.000000
20.735355 1387.000000
20.754837 2576.000000
20.774320 4598.000000
20.793802 8095.000000
20.813284 14395.000000
20.832767 18436.000000
20.852249 15816.000000
20.871732 11585.000000
20.891214 9228.000000
20.910696 5241.000000
20.930179 2002.000000
20.949661 887.000000
20.969143 551.000000
20.988626 451.000000
21.008108 379.000000
21.027591 322.000000
21.047073 320.000000
21.066555 324.000000
21.086038 267.000000
21.105520 279.000000
21.125002 276.000000
21.144485 253.000000
21.163967 224.000000
21.183449 260.000000
21.202932 207.000000
21.222414 225.000000
21.241897 235.000000
21.261379 231.000000
21.280861 206.000000
21.300344 230.000000
21.319826 229.000000
21.339308 199.000000
21.358791 211.000000
21.378273 218.000000
21.397756 200.000000
21.417238 180.000000
21.436720 189.000000
21.456203 227.000000
21.475685 181.000000
21.495167 193.000000
21.514650 188.000000
21.534132 194.000000
21.553614 216.000000
21.573097 216.000000
21.592579 199.000000
21.612062 224.000000
21.631544 195.000000
21.651026 189.000000
21.670509 201.000000
21.689991 212.000000
21.709473 228.000000
21.728956 201.000000
21.748438 184.000000
21.767921 211.000000
21.787403 163.000000
21.806885 189.000000
21.826368 190.000000
21.845850 193.000000
21.865332 196.000000
21.884815 192.000000
21.904297 197.000000
21.923779 200.000000
21.943262 199.000000
21.962744 177.000000
21.982227 195.000000
22.001709 212.000000
22.021191 205.000000
22.040674 182.000000
22.060156 200.000000
22.079638 199.000000
22.099121 197.000000
22.118603 172.000000
22.138086 178.000000
22.157568 194.000000
22.177050 208.000000
22.196533 179.000000
22.216015 205.000000
22.235497 191.000000
22.254980 196.000000
22.274462 200.000000
22.293945 189.000000
22.313427 166.000000
22.332909 184.000000
22.352392 204.000000
22.371874 195.000000
22.391356 178.000000
22.410839 186.000000
22.430321 162.000000
22.449803 193.000000
22.469286 157.000000
22.488768 190.000000
22.508251 192.000000
22.527733 173.000000
22.547215 167.000000
22.566698 175.000000
22.586180 190.000000
22.605662 177.000000
22.625145 182.000000
22.644627 181.000000
22.664110 195.000000
22.683592 174.000000
22.703074 155.000000
22.722557 194.000000
22.742039 182.000000
22.761521 160.000000
22.781004 179.000000
22.800486 174.000000
22.819968 158.000000
22.839451 152.000000
22.858933 152.000000
22.878416 184.000000
22.897898 187.000000
22.917380 186.000000
22.936863 176.000000
22.956345 182.000000
22.975827 174.000000
22.995310 184.000000
23.014792 184.000000
23.034275 178.000000
23.053757 184.000000
23.073239 198.000000
23.092722 187.000000
23.112204 194.000000
23.131686 183.000000
23.151169 199.000000
23.170651 188.000000
23.190133 182.000000
23.209616 150.000000
23.229098 155.000000
23.248581 163.000000
23.268063 153.000000
23.287545 173.000000
23.307028 173.000000
23.326510 166.000000
23.345992 181.000000
23.365475 191.000000
23.384957 204.000000
23.404440 170.000000
23.423922 167.000000
23.443404 146.000000
23.462887 188.000000
23.482369 179.000000
23.501851 173.000000
23.521334 149.000000
23.540816 187.000000
23.560298 175.000000
23.579781 182.000000
23.599263 163.000000
23.618746 171.000000
23.638228 176.000000
23.657710 166.000000
23.677193 151.000000
23.696675 171.000000
23.716157 189.000000
23.735640 173.000000
23.755122 186.000000
23.774605 170.000000
23.794087 197.000000
23.813569 175.000000
23.833052 177.000000
23.852534 162.000000
23.872016 177.000000
23.891499 196.000000
23.910981 212.000000
23.930463 212.000000
23.949946 193.000000
23.969428 274.000000
23.988911 280.000000
24.008393 325.000000
24.027875 318.000000
24.047358 224.000000
24.066840 186.000000
24.086322 184.000000
24.105805 203.000000
24.125287 159.000000
24.144770 174.000000
24.164252 193.000000
24.183734 170.000000
24.203217 184.000000
24.222699 197.000000
24.242181 200.000000
24.261664 179.000000
24.281146 183.000000
24.300629 198.000000
24.320111 173.000000
24.339593 183.000000
24.359076 166.000000
24.378558 168.000000
24.398040 203.000000
24.417523 171.000000
24.437005 184.000000
24.456487 157.000000
24.475970 167.000000
24.495452 178.000000
24.514935 164.000000
24.534417 171.000000
24.553899 179.000000
24.573382 147.000000
24.592864 166.000000
24.612346 158.000000
24.631829 155.000000
24.651311 161.000000
24.670794 171.000000
24.690276 165.000000
24.709758 161.000000
24.729241 178.000000
24.748723 158.000000
24.768205 180.000000
24.787688 165.000000
24.807170 159.000000
24.826652 167.000000
24.846135 162.000000
24.865617 149.000000
24.885100 181.000000
24.904582 175.000000
24.924064 191.000000
24.943547 175.000000
24.963029 182.000000
24.982511 157.000000
25.001994 176.000000
25.021476 145.000000
25.040959 146.000000
25.060441 150.000000
25.079923 181.000000
25.099406 170.000000
25.118888 176.000000
25.138370 178.000000
25.157853 146.000000
25.177335 179.000000
25.196817 142.000000
25.216300 163.000000
25.235782 174.000000
25.255265 163.000000
25.274747 188.000000
25.294229 164.000000
25.313712 165.000000
25.333194 176.000000
25.352676 163.000000
25.372159 172.000000
25.391641 181.000000
25.411124 149.000000
25.430606 181.000000
25.450088 164.000000
25.469571 154.000000
25.489053 168.000000
25.508535 155.000000
25.528018 161.000000
25.547500 174.000000
25.566982 159.000000
25.586465 153.000000
25.605947 153.000000
25.625430 175.000000
25.644912 206.000000
25.664394 202.000000
25.683877 224.000000
25.703359 285.000000
25.722841 299.000000
25.742324 306.000000
25.761806 316.000000
25.781289 333.000000
25.800771 345.000000
25.820253 282.000000
25.839736 325.000000
25.859218 347.000000
25.878700 319.000000
25.898183 317.000000
25.917665 344.000000
25.937148 294.000000
25.956630 333.000000
25.976112 290.000000
25.995595 337.000000
26.015077 356.000000
26.034559 342.000000
26.054042 310.000000
26.073524 311.000000
26.093006 328.000000
26.112489 371.000000
26.131971 338.000000
26.151454 346.000000
26.170936 357.000000
26.190418 369.000000
26.209901 406.000000
26.229383 425.000000
26.248865 443.000000
26.268348 486.000000
26.287830 491.000000
26.307313 485.000000
26.326795 535.000000
26.346277 554.000000
26.365760 611.000000
26.385242 661.000000
26.404724 704.000000
26.424207 902.000000
26.443689 1019.000000
26.463171 1378.000000
26.482654 1963.000000
26.502136 2935.000000
26.521619 5105.000000
26.541101 9093.000000
26.560583 16303.000000
26.580066 29694.000000
26.599548 44415.000000
26.619030 58017.000000
26.638513 54439.000000
26.657995 35425.000000
26.677478 29323.000000
26.696960 27754.000000
26.716442 16480.000000
26.735925 5843.000000
26.755407 2666.000000
26.774889 1638.000000
26.794372 1198.000000
26.813854 988.000000
26.833336 891.000000
26.852819 727.000000
26.872301 643.000000
26.891784 583.000000
26.911266 527.000000
26.930748 512.000000
26.950231 459.000000
26.969713 409.000000
26.989195 393.000000
27.008678 418.000000
27.028160 359.000000
27.047643 365.000000
27.067125 350.000000
27.086607 321.000000
27.106090 340.000000
27.125572 321.000000
27.145054 332.000000
27.164537 312.000000
27.184019 333.000000
27.203501 296.000000
27.222984 291.000000
27.242466 293.000000
27.261949 341.000000
27.281431 287.000000
27.300913 280.000000
27.320396 284.000000
27.339878 285.000000
27.359360 265.000000
27.378843 263.000000
27.398325 323.000000
27.417808 289.000000
27.437290 273.000000
27.456772 270.000000
27.476255 252.000000
27.495737 261.000000
27.515219 258.000000
27.534702 286.000000
27.554184 283.000000
27.573667 266.000000
27.593149 228.000000
27.612631 232.000000
27.632114 237.000000
27.651596 265.000000
27.671078 264.000000
27.690561 250.000000
27.710043 206.000000
27.729525 248.000000
27.749008 260.000000
27.768490 229.000000
27.787973 250.000000
27.807455 243.000000
27.826937 250.000000
27.846420 240.000000
27.865902 235.000000
27.885384 265.000000
27.904867 239.000000
27.924349 223.000000
27.943832 253.000000
27.963314 227.000000
27.982796 207.000000
28.002279 240.000000
28.021761 228.000000
28.041243 226.000000
28.060726 245.000000
28.080208 219.000000
28.099690 258.000000
28.119173 214.000000
28.138655 211.000000
28.158138 205.000000
28.177620 195.000000
28.197102 198.000000
28.216585 190.000000
28.236067 211.000000
28.255549 190.000000
28.275032 222.000000
28.294514 210.000000
28.313997 245.000000
28.333479 217.000000
28.352961 184.000000
28.372444 226.000000
28.391926 194.000000
28.411408 209.000000
28.430891 191.000000
28.450373 194.000000
28.469855 209.000000
28.489338 213.000000
28.508820 196.000000
28.528303 193.000000
28.547785 192.000000
28.567267 213.000000
28.586750 186.000000
28.606232 191.000000
28.625714 182.000000
28.645197 187.000000
28.664679 213.000000
28.684162 191.000000
28.703644 205.000000
28.723126 204.000000
28.742609 191.000000
28.762091 199.000000
28.781573 199.000000
28.801056 185.000000
28.820538 194.000000
28.840020 200.000000
28.859503 205.000000
28.878985 191.000000
28.898468 182.000000
28.917950 215.000000
28.937432 194.000000
28.956915 200.000000
28.976397 203.000000
28.995879 207.000000
29.015362 180.000000
29.034844 206.000000
29.054327 206.000000
29.073809 199.000000
29.093291 187.000000
29.112774 175.000000
29.132256 183.000000
29.151738 200.000000
29.171221 169.000000
29.190703 192.000000
29.210185 186.000000
29.229668 183.000000
29.249150 167.000000
29.268633 165.000000
29.288115 188.000000
29.307597 177.000000
29.327080 210.000000
29.346562 222.000000
29.366044 202.000000
29.385527 236.000000
29.405009 206.000000
29.424492 234.000000
29.443974 207.000000
29.463456 177.000000
29.482939 185.000000
29.502421 191.000000
29.521903 153.000000
29.541386 186.000000
29.560868 189.000000
29.580351 189.000000
29.599833 207.000000
29.619315 170.000000
29.638798 153.000000
29.658280 172.000000
29.677762 187.000000
29.697245 205.000000
29.716727 178.000000
29.736209 199.000000
29.755692 178.000000
29.775174 179.000000
29.794657 165.000000
29.814139 176.000000
29.833621 171.000000
29.853104 180.000000
29.872586 173.000000
29.892068 167.000000
29.911551 151.000000
29.931033 193.000000
29.950516 162.000000
29.969998 184.000000
29.989480 174.000000
30.008963 172.000000
30.028445 162.000000
30.047927 165.000000
30.067410 180.000000
30.086892 192.000000
30.106374 176.000000
30.125857 160.000000
30.145339 161.000000
30.164822 177.000000
30.184304 160.000000
30.203786 165.000000
30.223269 182.000000
30.242751 152.000000
30.262233 175.000000
30.281716 160.000000
30.301198 165.000000
30.320681 156.000000
30.340163 170.000000
30.359645 163.000000
30.379128 166.000000
30.398610 143.000000
30.418092 164.000000
30.437575 155.000000
30.457057 154.000000
30.476539 172.000000
30.496022 168.000000
30.515504 177.000000
30.534987 148.000000
30.554469 152.000000
30.573951 172.000000
30.593434 152.000000
30.612916 160.000000
30.632398 152.000000
30.651881 158.000000
30.671363 178.000000
30.690846 133.000000
30.710328 155.000000
30.729810 120.000000
30.749293 171.000000
30.768775 177.000000
30.788257 151.000000
30.807740 156.000000
30.827222 173.000000
30.846704 161.000000
30.866187 167.000000
30.885669 140.000000
30.905152 150.000000
30.924634 145.000000
30.944116 153.000000
30.963599 141.000000
30.983081 138.000000
31.002563 169.000000
31.022046 153.000000
31.041528 169.000000
31.061011 137.000000
31.080493 146.000000
31.099975 157.000000
31.119458 164.000000
31.138940 161.000000
31.158422 151.000000
31.177905 161.000000
31.197387 171.000000
31.216870 142.000000
31.236352 155.000000
31.255834 152.000000
31.275317 165.000000
31.294799 155.000000
31.314281 161.000000
31.333764 153.000000
31.353246 180.000000
31.372728 130.000000
31.392211 156.000000
31.411693 164.000000
31.431176 150.000000
31.450658 147.000000
31.470140 164.000000
31.489623 161.000000
31.509105 148.000000
31.528587 184.000000
31.548070 161.000000
31.567552 132.000000
31.587035 151.000000
31.606517 155.000000
31.625999 169.000000
31.645482 148.000000
31.664964 141.000000
31.684446 144.000000
31.703929 149.000000
31.723411 140.000000
31.742893 133.000000
31.762376 149.000000
31.781858 148.000000
31.801341 145.000000
31.820823 144.000000
31.840305 157.000000
31.859788 125.000000
31.879270 148.000000
31.898752 163.000000
31.918235 148.000000
31.937717 138.000000
31.957200 159.000000
31.976682 163.000000
31.996164 127.000000
32.015647 156.000000
32.035129 137.000000
32.054611 147.000000
32.074094 134.000000
32.093576 151.000000
32.113058 150.000000
32.132541 160.000000
32.152023 170.000000
32.171506 131.000000
32.190988 140.000000
32.210470 158.000000
32.229953 158.000000
32.249435 129.000000
32.268917 143.000000
32.288400 148.000000
32.307882 154.000000
32.327365 156.000000
32.346847 148.000000
32.366329 131.000000
32.385812 135.000000
32.405294 153.000000
32.424776 148.000000
32.444259 130.000000
32.463741 142.000000
32.483223 152.000000
32.502706 160.000000
32.522188 170.000000
32.541671 160.000000
32.561153 131.000000
32.580635 141.000000
32.600118 138.000000
32.619600 134.000000
32.639082 144.000000
32.658565 133.000000
32.678047 136.000000
32.697530 129.000000
32.717012 136.000000
32.736494 143.000000
32.755977 143.000000
32.775459 146.000000
32.794941 147.000000
32.814424 138.000000
32.833906 155.000000
32.853389 134.000000
32.872871 147.000000
32.892353 150.000000
32.911836 142.000000
32.931318 148.000000
32.950800 149.000000
32.970283 131.000000
32.989765 132.000000
33.009247 128.000000
33.028730 140.000000
33.048212 136.000000
33.067695 162.000000
33.087177 143.000000
33.106659 148.000000
33.126142 138.000000
33.145624 119.000000
33.165106 135.000000
33.184589 149.000000
33.204071 152.000000
33.223554 159.000000
33.243036 132.000000
33.262518 138.000000
33.282001 147.000000
33.301483 139.000000
33.320965 134.000000
33.340448 124.000000
33.359930 147.000000
33.379412 127.000000
33.398895 114.000000
33.418377 122.000000
33.437860 149.000000
33.457342 132.000000
33.476824 134.000000
33.496307 142.000000
33.515789 140.000000
33.535271 115.000000
33.554754 146.000000
33.574236 116.000000
33.593719 127.000000
33.613201 125.000000
33.632683 137.000000
33.652166 131.000000
33.671648 128.000000
33.691130 134.000000
33.710613 168.000000
33.730095 140.000000
33.749577 137.000000
33.769060 136.000000
33.788542 111.000000
33.808025 130.000000
33.827507 135.000000
33.846989 128.000000
33.866472 143.000000
33.885954 132.000000
33.905436 144.000000
33.924919 109.000000
33.944401 127.000000
33.963884 147.000000
33.983366 114.000000
34.002848 101.000000
34.022331 137.000000
34.041813 129.000000
34.061295 124.000000
34.080778 132.000000
34.100260 142.000000
34.119742 122.000000
34.139225 132.000000
34.158707 115.000000
34.178190 133.000000
34.197672 126.000000
34.217154 111.000000
34.236637 155.000000
34.256119 130.000000
34.275601 136.000000
34.295084 135.000000
34.314566 141.000000
34.334049 141.000000
34.353531 119.000000
34.373013 136.000000
34.392496 119.000000
34.411978 126.000000
34.431460 135.000000
34.450943 129.000000
34.470425 129.000000
34.489908 130.000000
34.509390 124.000000
34.528872 154.000000
34.548355 136.000000
34.567837 133.000000
34.587319 128.000000
34.606802 129.000000
34.626284 147.000000
34.645766 119.000000
34.665249 125.000000
34.684731 131.000000
34.704214 134.000000
34.723696 133.000000
34.743178 130.000000
34.762661 155.000000
34.782143 147.000000
34.801625 104.000000
34.821108 133.000000
34.840590 107.000000
34.860073 128.000000
34.879555 152.000000
34.899037 132.000000
34.918520 119.000000
34.938002 122.000000
34.957484 151.000000
34.976967 134.000000
34.996449 126.000000
35.015931 135.000000
35.035414 124.000000
35.054896 120.000000
35.074379 112.000000
35.093861 137.000000
35.113343 140.000000
35.132826 145.000000
35.152308 133.000000
35.171790 117.000000
35.191273 136.000000
35.210755 135.000000
35.230238 142.000000
35.249720 136.000000
35.269202 126.000000
35.288685 134.000000
35.308167 136.000000
35.327649 147.000000
35.347132 129.000000
35.366614 129.000000
35.386096 127.000000
35.405579 129.000000
35.425061 135.000000
35.444544 135.000000
35.464026 140.000000
35.483508 166.000000
35.502991 145.000000
35.522473 133.000000
35.541955 136.000000
35.561438 138.000000
35.580920 160.000000
35.600403 111.000000
35.619885 131.000000
35.639367 126.000000
35.658850 126.000000
35.678332 114.000000
35.697814 144.000000
35.717297 124.000000
35.736779 147.000000
35.756261 148.000000
35.775744 117.000000
35.795226 139.000000
35.814709 121.000000
35.834191 136.000000
35.853673 126.000000
35.873156 160.000000
35.892638 129.000000
35.912120 118.000000
35.931603 136.000000
35.951085 139.000000
35.970568 137.000000
35.990050 156.000000
36.009532 141.000000
36.029015 142.000000
36.048497 135.000000
36.067979 124.000000
36.087462 139.000000
36.106944 155.000000
36.126426 141.000000
36.145909 162.000000
36.165391 132.000000
36.184874 143.000000
36.204356 140.000000
36.223838 161.000000
36.243321 167.000000
36.262803 166.000000
36.282285 188.000000
36.301768 173.000000
36.321250 176.000000
36.340733 184.000000
36.360215 230.000000
36.379697 247.000000
36.399180 302.000000
36.418662 411.000000
36.438144 647.000000
36.457627 1002.000000
36.477109 1927.000000
36.496592 2584.000000
36.516074 3486.000000
36.535556 3878.000000
36.555039 3042.000000
36.574521 2070.000000
36.594003 1941.000000
36.613486 1916.000000
36.632968 1892.000000
36.652450 1290.000000
36.671933 631.000000
36.691415 346.000000
36.710898 253.000000
36.730380 212.000000
36.749862 187.000000
36.769345 173.000000
36.788827 171.000000
36.808309 152.000000
36.827792 166.000000
36.847274 152.000000
36.866757 146.000000
36.886239 132.000000
36.905721 159.000000
36.925204 142.000000
36.944686 152.000000
36.964168 151.000000
36.983651 157.000000
37.003133 129.000000
37.022615 131.000000
37.042098 130.000000
37.061580 151.000000
37.081063 121.000000
37.100545 114.000000
37.120027 118.000000
37.139510 119.000000
37.158992 130.000000
37.178474 131.000000
37.197957 132.000000
37.217439 139.000000
37.236922 123.000000
37.256404 156.000000
37.275886 145.000000
37.295369 142.000000
37.314851 138.000000
37.334333 133.000000
37.353816 120.000000
37.373298 120.000000
37.392780 154.000000
37.412263 127.000000
37.431745 141.000000
37.451228 130.000000
37.470710 127.000000
37.490192 133.000000
37.509675 119.000000
37.529157 133.000000
37.548639 135.000000
37.568122 132.000000
37.587604 114.000000
37.607087 134.000000
37.626569 140.000000
37.646051 100.000000
37.665534 133.000000
37.685016 142.000000
37.704498 124.000000
37.723981 130.000000
37.743463 150.000000
37.762945 119.000000
37.782428 130.000000
37.801910 125.000000
37.821393 132.000000
37.840875 106.000000
37.860357 128.000000
37.879840 118.000000
37.899322 119.000000
37.918804 113.000000
37.938287 143.000000
37.957769 128.000000
37.977252 113.000000
37.996734 125.000000
38.016216 109.000000
38.035699 117.000000
38.055181 125.000000
38.074663 138.000000
38.094146 135.000000
38.113628 135.000000
38.133111 131.000000
38.152593 142.000000
38.172075 137.000000
38.191558 133.000000
38.211040 109.000000
38.230522 141.000000
38.250005 131.000000
38.269487 118.000000
38.288969 131.000000
38.308452 106.000000
38.327934 135.000000
38.347417 133.000000
38.366899 133.000000
38.386381 134.000000
38.405864 142.000000
38.425346 155.000000
38.444828 149.000000
38.464311 122.000000
38.483793 138.000000
38.503276 129.000000
38.522758 148.000000
38.542240 121.000000
38.561723 148.000000
38.581205 125.000000
38.600687 124.000000
38.620170 128.000000
38.639652 129.000000
38.659134 148.000000
38.678617 126.000000
38.698099 136.000000
38.717582 145.000000
38.737064 134.000000
38.756546 123.000000
38.776029 136.000000
38.795511 141.000000
38.814993 126.000000
38.834476 138.000000
38.853958 128.000000
38.873441 117.000000
38.892923 162.000000
38.912405 142.000000
38.931888 127.000000
38.951370 132.000000
38.970852 126.000000
38.990335 131.000000
39.009817 130.000000
39.029299 128.000000
39.048782 144.000000
39.068264 146.000000
39.087747 163.000000
39.107229 149.000000
39.126711 149.000000
39.146194 153.000000
39.165676 147.000000
39.185158 160.000000
39.204641 157.000000
39.224123 200.000000
39.243606 190.000000
39.263088 223.000000
39.282570 210.000000
39.302053 264.000000
39.321535 310.000000
39.341017 388.000000
39.360500 642.000000
39.379982 983.000000
39.399464 1667.000000
39.418947 2583.000000
39.438429 3780.000000
39.457912 3866.000000
39.477394 2784.000000
39.496876 1629.000000
39.516359 1470.000000
39.535841 1893.000000
39.555323 2026.000000
39.574806 1554.000000
39.594288 799.000000
39.613771 430.000000
39.633253 273.000000
39.652735 207.000000
39.672218 176.000000
39.691700 173.000000
39.711182 171.000000
39.730665 154.000000
39.750147 145.000000
39.769630 134.000000
39.789112 141.000000
39.808594 159.000000
39.828077 143.000000
39.847559 129.000000
39.867041 136.000000
39.886524 130.000000
39.906006 160.000000
39.925488 157.000000
39.944971 148.000000
39.964453 152.000000
39.983936 158.000000
40.003418 140.000000
40.022900 140.000000
40.042383 173.000000
40.061865 190.000000
40.081347 178.000000
40.100830 199.000000
40.120312 211.000000
40.139795 233.000000
40.159277 254.000000
40.178759 329.000000
40.198242 484.000000
40.217724 751.000000
40.237206 1164.000000
40.256689 1586.000000
40.276171 1727.000000
40.295653 1283.000000
40.315136 847.000000
40.334618 783.000000
40.354101 840.000000
40.373583 981.000000
40.393065 806.000000
40.412548 496.000000
40.432030 284.000000
40.451512 230.000000
40.470995 193.000000
40.490477 157.000000
40.509960 184.000000
40.529442 132.000000
40.548924 156.000000
40.568407 122.000000
40.587889 150.000000
40.607371 145.000000
40.626854 132.000000
40.646336 122.000000
40.665818 149.000000
40.685301 147.000000
40.704783 128.000000
40.724266 137.000000
40.743748 129.000000
40.763230 128.000000
40.782713 116.000000
40.802195 135.000000
40.821677 112.000000
40.841160 129.000000
40.860642 127.000000
40.880125 135.000000
40.899607 115.000000
40.919089 143.000000
40.938572 128.000000
40.958054 137.000000
40.977536 128.000000
40.997019 127.000000
41.016501 126.000000
41.035983 136.000000
41.055466 150.000000
41.074948 138.000000
41.094431 136.000000
41.113913 132.000000
41.133395 129.000000
41.152878 132.000000
41.172360 126.000000
41.191842 154.000000
41.211325 132.000000
41.230807 125.000000
41.250290 116.000000
41.269772 125.000000
41.289254 137.000000
41.308737 132.000000
41.328219 135.000000
41.347701 124.000000
41.367184 127.000000
41.386666 128.000000
41.406149 132.000000
41.425631 131.000000
41.445113 147.000000
41.464596 137.000000
41.484078 125.000000
41.503560 118.000000
41.523043 137.000000
41.542525 124.000000
41.562007 124.000000
41.581490 120.000000
41.600972 122.000000
41.620455 99.000000
41.639937 135.000000
41.659419 152.000000
41.678902 137.000000
41.698384 118.000000
41.717866 121.000000
41.737349 142.000000
41.756831 119.000000
41.776314 139.000000
41.795796 120.000000
41.815278 129.000000
41.834761 145.000000
41.854243 111.000000
41.873725 145.000000
41.893208 129.000000
41.912690 109.000000
41.932172 123.000000
41.951655 132.000000
41.971137 137.000000
41.990620 150.000000
42.010102 135.000000
42.029584 122.000000
42.049067 131.000000
42.068549 123.000000
42.088031 148.000000
42.107514 136.000000
42.126996 162.000000
42.146479 154.000000
42.165961 149.000000
42.185443 164.000000
42.204926 196.000000
42.224408 198.000000
42.243890 205.000000
42.263373 222.000000
42.282855 277.000000
42.302337 332.000000
42.321820 483.000000
42.341302 740.000000
42.360785 1182.000000
42.380267 1988.000000
42.399749 3203.000000
42.419232 4503.000000
42.438714 4508.000000
42.458196 3231.000000
42.477679 2229.000000
42.497161 1891.000000
42.516644 2167.000000
42.536126 2517.000000
42.555608 2145.000000
42.575091 1411.000000
42.594573 801.000000
42.614055 485.000000
42.633538 345.000000
42.653020 259.000000
42.672502 209.000000
42.691985 212.000000
42.711467 184.000000
42.730950 178.000000
42.750432 144.000000
42.769914 181.000000
42.789397 155.000000
42.808879 148.000000
42.828361 132.000000
42.847844 138.000000
42.867326 122.000000
42.886809 149.000000
42.906291 135.000000
42.925773 142.000000
42.945256 125.000000
42.964738 134.000000
42.984220 126.000000
43.003703 141.000000
43.023185 131.000000
43.042667 146.000000
43.062150 137.000000
43.081632 111.000000
43.101115 135.000000
43.120597 119.000000
43.140079 135.000000
43.159562 123.000000
43.179044 127.000000
43.198526 140.000000
43.218009 110.000000
43.237491 132.000000
43.256974 117.000000
43.276456 126.000000
43.295938 123.000000
43.315421 122.000000
43.334903 121.000000
43.354385 122.000000
43.373868 130.000000
43.393350 123.000000
43.412833 114.000000
43.432315 104.000000
43.451797 110.000000
43.471280 120.000000
43.490762 134.000000
43.510244 117.000000
43.529727 115.000000
43.549209 133.000000
43.568691 100.000000
43.588174 122.000000
43.607656 111.000000
43.627139 119.000000
43.646621 127.000000
43.666103 135.000000
43.685586 108.000000
43.705068 135.000000
43.724550 119.000000
43.744033 108.000000
43.763515 122.000000
43.782998 112.000000
43.802480 119.000000
43.821962 112.000000
43.841445 117.000000
43.860927 118.000000
43.880409 106.000000
43.899892 101.000000
43.919374 108.000000
43.938856 100.000000
43.958339 108.000000
43.977821 115.000000
43.997304 101.000000
44.016786 121.000000
44.036268 111.000000
44.055751 117.000000
44.075233 135.000000
44.094715 133.000000
44.114198 127.000000
44.133680 122.000000
44.153163 104.000000
44.172645 106.000000
44.192127 112.000000
44.211610 106.000000
44.231092 105.000000
44.250574 126.000000
44.270057 114.000000
44.289539 129.000000
44.309021 110.000000
44.328504 113.000000
44.347986 124.000000
44.367469 120.000000
44.386951 109.000000
44.406433 113.000000
44.425916 107.000000
44.445398 121.000000
44.464880 132.000000
44.484363 121.000000
44.503845 110.000000
44.523328 122.000000
44.542810 142.000000
44.562292 131.000000
44.581775 121.000000
44.601257 119.000000
44.620739 127.000000
44.640222 112.000000
44.659704 108.000000
44.679186 101.000000
44.698669 123.000000
44.718151 101.000000
44.737634 111.000000
44.757116 125.000000
44.776598 119.000000
44.796081 118.000000
44.815563 106.000000
44.835045 122.000000
44.854528 100.000000
44.874010 131.000000
44.893493 123.000000
44.912975 116.000000
44.932457 107.000000
44.951940 144.000000
44.971422 121.000000
44.990904 118.000000
45.010387 133.000000
45.029869 145.000000
45.049352 144.000000
45.068834 120.000000
45.088316 104.000000
45.107799 93.000000
45.127281 131.000000
45.146763 131.000000
45.166246 103.000000
45.185728 115.000000
45.205210 121.000000
45.224693 105.000000
45.244175 119.000000
45.263658 116.000000
45.283140 114.000000
45.302622 134.000000
45.322105 118.000000
45.341587 112.000000
45.361069 109.000000
45.380552 120.000000
45.400034 121.000000
45.419517 124.000000
45.438999 119.000000
45.458481 139.000000
45.477964 121.000000
45.497446 130.000000
45.516928 140.000000
45.536411 116.000000
45.555893 148.000000
45.575375 128.000000
45.594858 172.000000
45.614340 160.000000
45.633823 180.000000
45.653305 229.000000
45.672787 345.000000
45.692270 458.000000
45.711752 728.000000
45.731234 958.000000
45.750717 1131.000000
45.770199 1331.000000
45.789682 1262.000000
45.809164 957.000000
45.828646 748.000000
45.848129 649.000000
45.867611 685.000000
45.887093 797.000000
45.906576 694.000000
45.926058 531.000000
45.945540 353.000000
45.965023 214.000000
45.984505 215.000000
46.003988 174.000000
46.023470 128.000000
46.042952 133.000000
46.062435 139.000000
46.081917 132.000000
46.101399 124.000000
46.120882 128.000000
46.140364 108.000000
46.159847 133.000000
46.179329 122.000000
46.198811 103.000000
46.218294 113.000000
46.237776 113.000000
46.257258 129.000000
46.276741 120.000000
46.296223 121.000000
46.315705 108.000000
46.335188 94.000000
46.354670 106.000000
46.374153 118.000000
46.393635 105.000000
46.413117 113.000000
46.432600 117.000000
46.452082 112.000000
46.471564 110.000000
46.491047 116.000000
46.510529 106.000000
46.530012 122.000000
46.549494 107.000000
46.568976 100.000000
46.588459 110.000000
46.607941 90.000000
46.627423 133.000000
46.646906 105.000000
46.666388 120.000000
46.685871 99.000000
46.705353 115.000000
46.724835 111.000000
46.744318 103.000000
46.763800 101.000000
46.783282 89.000000
46.802765 92.000000
46.822247 116.000000
46.841729 117.000000
46.861212 105.000000
46.880694 98.000000
46.900177 97.000000
46.919659 113.000000
46.939141 113.000000
46.958624 129.000000
46.978106 109.000000
46.997588 108.000000
47.017071 96.000000
47.036553 127.000000
47.056036 125.000000
47.075518 119.000000
47.095000 102.000000
47.114483 90.000000
47.133965 110.000000
47.153447 108.000000
47.172930 95.000000
47.192412 111.000000
47.211894 113.000000
47.231377 97.000000
47.250859 107.000000
47.270342 101.000000
47.289824 125.000000
47.309306 96.000000
47.328789 126.000000
47.348271 101.000000
47.367753 112.000000
47.387236 116.000000
47.406718 102.000000
47.426201 130.000000
47.445683 131.000000
47.465165 168.000000
47.484648 161.000000
47.504130 203.000000
47.523612 167.000000
47.543095 144.000000
47.562577 132.000000
47.582059 131.000000
47.601542 132.000000
47.621024 143.000000
47.640507 144.000000
47.659989 121.000000
47.679471 133.000000
47.698954 132.000000
47.718436 113.000000
47.737918 111.000000
47.757401 106.000000
47.776883 96.000000
47.796366 109.000000
47.815848 119.000000
47.835330 92.000000
47.854813 90.000000
47.874295 110.000000
47.893777 97.000000
47.913260 109.000000
47.932742 114.000000
47.952224 120.000000
47.971707 96.000000
47.991189 112.000000
48.010672 92.000000
48.030154 108.000000
48.049636 97.000000
48.069119 121.000000
48.088601 107.000000
48.108083 107.000000
48.127566 104.000000
48.147048 99.000000
48.166531 105.000000
48.186013 120.000000
48.205495 113.000000
48.224978 99.000000
48.244460 107.000000
48.263942 125.000000
48.283425 103.000000
48.302907 114.000000
48.322389 118.000000
48.341872 110.000000
48.361354 120.000000
48.380837 112.000000
48.400319 119.000000
48.419801 120.000000
48.439284 115.000000
48.458766 143.000000
48.478248 121.000000
48.497731 141.000000
48.517213 122.000000
48.536696 135.000000
48.556178 121.000000
48.575660 146.000000
48.595143 128.000000
48.614625 121.000000
48.634107 114.000000
48.653590 120.000000
48.673072 130.000000
48.692555 110.000000
48.712037 123.000000
48.731519 128.000000
48.751002 126.000000
48.770484 112.000000
48.789966 117.000000
48.809449 129.000000
48.828931 115.000000
48.848413 124.000000
48.867896 114.000000
48.887378 119.000000
48.906861 112.000000
48.926343 119.000000
48.945825 104.000000
48.965308 110.000000
48.984790 125.000000
49.004272 96.000000
49.023755 110.000000
49.043237 95.000000
49.062720 120.000000
49.082202 112.000000
49.101684 111.000000
49.121167 122.000000
49.140649 99.000000
49.160131 103.000000
49.179614 125.000000
49.199096 134.000000
49.218578 130.000000
49.238061 118.000000
49.257543 116.000000
49.277026 120.000000
49.296508 104.000000
49.315990 111.000000
49.335473 110.000000
49.354955 118.000000
49.374437 109.000000
49.393920 102.000000
49.413402 117.000000
49.432885 118.000000
49.452367 123.000000
49.471849 117.000000
49.491332 119.000000
49.510814 112.000000
49.530296 120.000000
49.549779 112.000000
49.569261 109.000000
49.588743 138.000000
49.608226 135.000000
49.627708 135.000000
49.647191 124.000000
49.666673 123.000000
49.686155 131.000000
49.705638 139.000000
49.725120 115.000000
49.744602 143.000000
49.764085 147.000000
49.783567 133.000000
49.803050 150.000000
49.822532 159.000000
49.842014 198.000000
49.861497 205.000000
49.880979 223.000000
49.900461 229.000000
49.919944 225.000000
49.939426 251.000000
49.958908 289.000000
49.978391 366.000000
49.997873 509.000000
50.017356 768.000000
50.036838 1270.000000
50.056320 2010.000000
50.075803 3110.000000
50.095285 3889.000000
50.114767 4185.000000
50.134250 3932.000000
50.153732 2848.000000
50.173215 1950.000000
50.192697 1686.000000
50.212179 1888.000000
50.231662 2252.000000
50.251144 2147.000000
50.270626 1925.000000
50.290109 1391.000000
50.309591 780.000000
50.329074 493.000000
50.348556 319.000000
50.368038 253.000000
50.387521 202.000000
50.407003 175.000000
50.426485 178.000000
50.445968 167.000000
50.465450 191.000000
50.484932 167.000000
50.504415 166.000000
50.523897 198.000000
50.543380 189.000000
50.562862 285.000000
50.582344 371.000000
50.601827 332.000000
50.621309 302.000000
50.640791 222.000000
50.660274 194.000000
50.679756 161.000000
50.699239 204.000000
50.718721 242.000000
50.738203 224.000000
50.757686 192.000000
50.777168 166.000000
50.796650 142.000000
50.816133 131.000000
50.835615 136.000000
50.855097 136.000000
50.874580 117.000000
50.894062 109.000000
50.913545 112.000000
50.933027 124.000000
50.952509 110.000000
50.971992 105.000000
50.991474 120.000000
51.010956 131.000000
51.030439 130.000000
51.049921 115.000000
51.069404 120.000000
51.088886 113.000000
51.108368 102.000000
51.127851 90.000000
51.147333 96.000000
51.166815 138.000000
51.186298 117.000000
51.205780 110.000000
51.225262 109.000000
51.244745 101.000000
51.264227 94.000000
51.283710 109.000000
51.303192 104.000000
51.322674 105.000000
51.342157 108.000000
51.361639 109.000000
51.381121 101.000000
51.400604 98.000000
51.420086 111.000000
51.439569 94.000000
51.459051 110.000000
51.478533 112.000000
51.498016 108.000000
51.517498 105.000000
51.536980 123.000000
51.556463 97.000000
51.575945 123.000000
51.595427 96.000000
51.614910 110.000000
51.634392 111.000000
51.653875 110.000000
51.673357 82.000000
51.692839 99.000000
51.712322 103.000000
51.731804 130.000000
51.751286 116.000000
51.770769 105.000000
51.790251 113.000000
51.809734 107.000000
51.829216 90.000000
51.848698 94.000000
51.868181 97.000000
51.887663 107.000000
51.907145 90.000000
51.926628 99.000000
51.946110 102.000000
51.965593 112.000000
51.985075 118.000000
52.004557 101.000000
52.024040 89.000000
52.043522 116.000000
52.063004 97.000000
52.082487 125.000000
52.101969 89.000000
52.121451 98.000000
52.140934 95.000000
52.160416 107.000000
52.179899 110.000000
52.199381 108.000000
52.218863 98.000000
52.238346 110.000000
52.257828 107.000000
52.277310 101.000000
52.296793 100.000000
52.316275 92.000000
52.335758 86.000000
52.355240 94.000000
52.374722 91.000000
52.394205 91.000000
52.413687 89.000000
52.433169 99.000000
52.452652 120.000000
52.472134 99.000000
52.491616 100.000000
52.511099 87.000000
52.530581 119.000000
52.550064 93.000000
52.569546 114.000000
52.589028 90.000000
52.608511 96.000000
52.627993 95.000000
52.647475 113.000000
52.666958 89.000000
52.686440 108.000000
52.705923 86.000000
52.725405 79.000000
52.744887 93.000000
52.764370 89.000000
52.783852 119.000000
52.803334 95.000000
52.822817 102.000000
52.842299 103.000000
52.861781 95.000000
52.881264 97.000000
52.900746 100.000000
52.920229 101.000000
52.939711 100.000000
52.959193 89.000000
52.978676 102.000000
52.998158 99.000000
53.017640 94.000000
53.037123 114.000000
53.056605 113.000000
53.076088 87.000000
53.095570 106.000000
53.115052 96.000000
53.134535 114.000000
53.154017 98.000000
53.173499 102.000000
53.192982 110.000000
53.212464 99.000000
53.231946 102.000000
53.251429 100.000000
53.270911 105.000000
53.290394 112.000000
53.309876 111.000000
53.329358 103.000000
53.348841 99.000000
53.368323 85.000000
53.387805 91.000000
53.407288 113.000000
53.426770 121.000000
53.446253 103.000000
53.465735 108.000000
53.485217 102.000000
53.504700 96.000000
53.524182 90.000000
53.543664 110.000000
53.563147 101.000000
53.582629 100.000000
53.602112 132.000000
53.621594 105.000000
53.641076 104.000000
53.660559 149.000000
53.680041 109.000000
53.699523 112.000000
53.719006 105.000000
53.738488 101.000000
53.757970 100.000000
53.777453 102.000000
53.796935 112.000000
53.816418 94.000000
53.835900 89.000000
53.855382 106.000000
53.874865 113.000000
53.894347 103.000000
53.913829 103.000000
53.933312 93.000000
53.952794 84.000000
53.972277 102.000000
53.991759 106.000000
54.011241 101.000000
54.030724 101.000000
54.050206 101.000000
54.069688 96.000000
54.089171 98.000000
54.108653 92.000000
54.128135 101.000000
54.147618 112.000000
54.167100 107.000000
54.186583 115.000000
54.206065 82.000000
54.225547 112.000000
54.245030 114.000000
54.264512 90.000000
54.283994 99.000000
54.303477 100.000000
54.322959 110.000000
54.342442 99.000000
54.361924 104.000000
54.381406 105.000000
54.400889 93.000000
54.420371 102.000000
54.439853 100.000000
54.459336 117.000000
54.478818 115.000000
54.498300 110.000000
54.517783 136.000000
54.537265 130.000000
54.556748 122.000000
54.576230 124.000000
54.595712 111.000000
54.615195 133.000000
54.634677 156.000000
54.654159 127.000000
54.673642 146.000000
54.693124 175.000000
54.712607 179.000000
54.732089 248.000000
54.751571 330.000000
54.771054 494.000000
54.790536 661.000000
54.810018 938.000000
54.829501 1253.000000
54.848983 1420.000000
54.868465 1561.000000
54.887948 1248.000000
54.907430 854.000000
54.926913 635.000000
54.946395 650.000000
54.965877 664.000000
54.985360 778.000000
55.004842 911.000000
55.024324 885.000000
55.043807 594.000000
55.063289 352.000000
55.082772 247.000000
55.102254 206.000000
55.121736 174.000000
55.141219 185.000000
55.160701 150.000000
55.180183 180.000000
55.199666 173.000000
55.219148 204.000000
55.238630 321.000000
55.258113 393.000000
55.277595 533.000000
55.297078 587.000000
55.316560 569.000000
55.336042 418.000000
55.355525 280.000000
55.375007 243.000000
55.394489 253.000000
55.413972 277.000000
55.433454 351.000000
55.452937 334.000000
55.472419 326.000000
55.491901 240.000000
55.511384 164.000000
55.530866 142.000000
55.550348 115.000000
55.569831 127.000000
55.589313 110.000000
55.608796 105.000000
55.628278 125.000000
55.647760 97.000000
55.667243 107.000000
55.686725 120.000000
55.706207 110.000000
55.725690 98.000000
55.745172 94.000000
55.764654 101.000000
55.784137 93.000000
55.803619 89.000000
55.823102 107.000000
55.842584 92.000000
55.862066 98.000000
55.881549 112.000000
55.901031 104.000000
55.920513 101.000000
55.939996 95.000000
55.959478 78.000000
55.978961 116.000000
55.998443 89.000000
56.017925 98.000000
56.037408 105.000000
56.056890 94.000000
56.076372 111.000000
56.095855 110.000000
56.115337 86.000000
56.134819 87.000000
56.154302 104.000000
56.173784 98.000000
56.193267 78.000000
56.212749 106.000000
56.232231 82.000000
56.251714 92.000000
56.271196 93.000000
56.290678 90.000000
56.310161 95.000000
56.329643 75.000000
56.349126 86.000000
56.368608 97.000000
56.388090 76.000000
56.407573 103.000000
56.427055 85.000000
56.446537 92.000000
56.466020 101.000000
56.485502 96.000000
56.504984 78.000000
56.524467 87.000000
56.543949 101.000000
56.563432 93.000000
56.582914 90.000000
56.602396 82.000000
56.621879 85.000000
56.641361 90.000000
56.660843 84.000000
56.680326 81.000000
56.699808 88.000000
56.719291 102.000000
56.738773 110.000000
56.758255 79.000000
56.777738 94.000000
56.797220 111.000000
56.816702 98.000000
56.836185 95.000000
56.855667 100.000000
56.875149 101.000000
56.894632 103.000000
56.914114 82.000000
56.933597 83.000000
56.953079 102.000000
56.972561 88.000000
56.992044 93.000000
57.011526 89.000000
57.031008 87.000000
57.050491 84.000000
57.069973 88.000000
57.089456 109.000000
57.108938 122.000000
57.128420 110.000000
57.147903 141.000000
57.167385 150.000000
57.186867 147.000000
57.206350 157.000000
57.225832 148.000000
57.245315 142.000000
57.264797 112.000000
57.284279 124.000000
57.303762 120.000000
57.323244 125.000000
57.342726 132.000000
57.362209 143.000000
57.381691 142.000000
57.401173 111.000000
57.420656 111.000000
57.440138 105.000000
57.459621 98.000000
57.479103 90.000000
57.498585 107.000000
57.518068 99.000000
57.537550 72.000000
57.557032 105.000000
57.576515 106.000000
57.595997 96.000000
57.615480 92.000000
57.634962 97.000000
57.654444 99.000000
57.673927 92.000000
57.693409 87.000000
57.712891 98.000000
57.732374 92.000000
57.751856 96.000000
57.771338 103.000000
57.790821 108.000000
57.810303 89.000000
57.829786 94.000000
57.849268 109.000000
57.868750 95.000000
57.888233 108.000000
57.907715 107.000000
57.927197 82.000000
57.946680 107.000000
57.966162 95.000000
57.985645 97.000000
58.005127 114.000000
58.024609 108.000000
58.044092 107.000000
58.063574 100.000000
58.083056 94.000000
58.102539 113.000000
58.122021 94.000000
58.141503 103.000000
58.160986 82.000000
58.180468 106.000000
58.199951 106.000000
58.219433 96.000000
58.238915 115.000000
58.258398 93.000000
58.277880 99.000000
58.297362 113.000000
58.316845 107.000000
58.336327 85.000000
58.355810 111.000000
58.375292 89.000000
58.394774 118.000000
58.414257 106.000000
58.433739 89.000000
58.453221 105.000000
58.472704 106.000000
58.492186 93.000000
58.511668 102.000000
58.531151 111.000000
58.550633 93.000000
58.570116 115.000000
58.589598 88.000000
58.609080 99.000000
58.628563 108.000000
58.648045 100.000000
58.667527 80.000000
58.687010 114.000000
58.706492 111.000000
58.725975 114.000000
58.745457 98.000000
58.764939 103.000000
58.784422 114.000000
58.803904 89.000000
58.823386 97.000000
58.842869 103.000000
58.862351 90.000000
58.881834 95.000000
58.901316 101.000000
58.920798 93.000000
58.940281 104.000000
58.959763 109.000000
58.979245 109.000000
58.998728 106.000000
59.018210 95.000000
59.037692 105.000000
59.057175 85.000000
59.076657 99.000000
59.096140 99.000000
59.115622 108.000000
59.135104 109.000000
59.154587 91.000000
59.174069 114.000000
59.193551 88.000000
59.213034 92.000000
59.232516 111.000000
59.251999 108.000000
59.271481 103.000000
59.290963 98.000000
59.310446 100.000000
59.329928 110.000000
59.349410 125.000000
59.368893 124.000000
59.388375 110.000000
59.407857 105.000000
59.427340 111.000000
59.446822 104.000000
59.466305 134.000000
59.485787 127.000000
59.505269 105.000000
59.524752 134.000000
59.544234 138.000000
59.563716 119.000000
59.583199 142.000000
59.602681 155.000000
59.622164 176.000000
59.641646 205.000000
59.661128 175.000000
59.680611 164.000000
59.700093 190.000000
59.719575 184.000000
59.739058 212.000000
59.758540 259.000000
59.778022 314.000000
59.797505 434.000000
59.816987 557.000000
59.836470 851.000000
59.855952 1221.000000
59.875434 1920.000000
59.894917 2782.000000
59.914399 3746.000000
59.933881 4334.000000
59.953364 3914.000000
59.972846 2885.000000
59.992329 1869.000000
60.011811 1425.000000
60.031293 1337.000000
60.050776 1524.000000
60.070258 1901.000000
60.089740 2145.000000
60.109223 2146.000000
60.128705 1772.000000
60.148187 1186.000000
60.167670 711.000000
60.187152 459.000000
60.206635 384.000000
60.226117 267.000000
60.245599 211.000000
60.265082 204.000000
60.284564 182.000000
60.304046 154.000000
60.323529 165.000000
60.343011 156.000000
60.362494 151.000000
60.381976 149.000000
60.401458 150.000000
60.420941 128.000000
60.440423 138.000000
60.459905 134.000000
60.479388 131.000000
60.498870 102.000000
60.518352 117.000000
60.537835 118.000000
60.557317 114.000000
60.576800 104.000000
60.596282 113.000000
60.615764 113.000000
60.635247 135.000000
60.654729 116.000000
60.674211 96.000000
60.693694 111.000000
60.713176 101.000000
60.732659 101.000000
60.752141 116.000000
60.771623 114.000000
60.791106 105.000000
60.810588 99.000000
60.830070 111.000000
60.849553 87.000000
60.869035 96.000000
60.888518 103.000000
60.908000 88.000000
60.927482 118.000000
60.946965 105.000000
60.966447 104.000000
60.985929 98.000000
61.005412 108.000000
61.024894 101.000000
61.044376 95.000000
61.063859 115.000000
61.083341 93.000000
61.102824 99.000000
61.122306 124.000000
61.141788 94.000000
61.161271 86.000000
61.180753 105.000000
61.200235 94.000000
61.219718 106.000000
61.239200 82.000000
61.258683 93.000000
61.278165 82.000000
61.297647 82.000000
61.317130 81.000000
61.336612 97.000000
61.356094 121.000000
61.375577 83.000000
61.395059 107.000000
61.414541 89.000000
61.434024 87.000000
61.453506 82.000000
61.472989 95.000000
61.492471 96.000000
61.511953 88.000000
61.531436 85.000000
61.550918 107.000000
61.570400 89.000000
61.589883 114.000000
61.609365 77.000000
61.628848 98.000000
61.648330 88.000000
61.667812 95.000000
61.687295 106.000000
61.706777 89.000000
61.726259 76.000000
61.745742 91.000000
61.765224 97.000000
61.784706 94.000000
61.804189 82.000000
61.823671 94.000000
61.843154 75.000000
61.862636 78.000000
61.882118 91.000000
61.901601 103.000000
61.921083 90.000000
61.940565 99.000000
61.960048 84.000000
61.979530 112.000000
61.999013 113.000000
62.018495 98.000000
62.037977 93.000000
62.057460 106.000000
62.076942 100.000000
62.096424 87.000000
62.115907 77.000000
62.135389 96.000000
62.154871 90.000000
62.174354 80.000000
62.193836 95.000000
62.213319 87.000000
62.232801 95.000000
62.252283 92.000000
62.271766 84.000000
62.291248 91.000000
62.310730 93.000000
62.330213 101.000000
62.349695 104.000000
62.369178 107.000000
62.388660 85.000000
62.408142 84.000000
62.427625 90.000000
62.447107 90.000000
62.466589 82.000000
62.486072 107.000000
62.505554 105.000000
62.525037 93.000000
62.544519 86.000000
62.564001 87.000000
62.583484 86.000000
62.602966 93.000000
62.622448 89.000000
62.641931 83.000000
62.661413 85.000000
62.680895 88.000000
62.700378 98.000000
62.719860 87.000000
62.739343 115.000000
62.758825 76.000000
62.778307 82.000000
62.797790 96.000000
62.817272 88.000000
62.836754 76.000000
62.856237 99.000000
62.875719 93.000000
62.895202 74.000000
62.914684 99.000000
62.934166 93.000000
62.953649 104.000000
62.973131 90.000000
62.992613 104.000000
63.012096 92.000000
63.031578 74.000000
63.051060 106.000000
63.070543 91.000000
63.090025 105.000000
63.109508 92.000000
63.128990 87.000000
63.148472 93.000000
63.167955 107.000000
63.187437 81.000000
63.206919 99.000000
63.226402 86.000000
63.245884 94.000000
63.265367 95.000000
63.284849 80.000000
63.304331 82.000000
63.323814 78.000000
63.343296 86.000000
63.362778 87.000000
63.382261 88.000000
63.401743 99.000000
63.421225 84.000000
63.440708 91.000000
63.460190 84.000000
63.479673 102.000000
63.499155 89.000000
63.518637 86.000000
63.538120 89.000000
63.557602 96.000000
63.577084 89.000000
63.596567 73.000000
63.616049 109.000000
63.635532 102.000000
63.655014 101.000000
63.674496 110.000000
63.693979 100.000000
63.713461 92.000000
63.732943 103.000000
63.752426 109.000000
63.771908 89.000000
63.791390 108.000000
63.810873 104.000000
63.830355 118.000000
63.849838 84.000000
63.869320 116.000000
63.888802 156.000000
63.908285 177.000000
63.927767 265.000000
63.947249 328.000000
63.966732 391.000000
63.986214 505.000000
64.005697 596.000000
64.025179 641.000000
64.044661 520.000000
64.064144 354.000000
64.083626 232.000000
64.103108 250.000000
64.122591 238.000000
64.142073 249.000000
64.161556 282.000000
64.181038 364.000000
64.200520 360.000000
64.220003 298.000000
64.239485 223.000000
64.258967 180.000000
64.278450 157.000000
64.297932 121.000000
64.317414 113.000000
64.336897 114.000000
64.356379 92.000000
64.375862 117.000000
64.395344 95.000000
64.414826 108.000000
64.434309 79.000000
64.453791 88.000000
64.473273 89.000000
64.492756 90.000000
64.512238 95.000000
64.531721 93.000000
64.551203 95.000000
64.570685 88.000000
64.590168 85.000000
64.609650 89.000000
64.629132 108.000000
64.648615 97.000000
64.668097 98.000000
64.687579 92.000000
64.707062 81.000000
64.726544 100.000000
64.746027 113.000000
64.765509 105.000000
64.784991 102.000000
64.804474 106.000000
64.823956 90.000000
64.843438 97.000000
64.862921 96.000000
64.882403 98.000000
64.901886 106.000000
64.921368 93.000000
64.940850 98.000000
64.960333 73.000000
64.979815 97.000000
64.999297 95.000000
65.018780 76.000000
65.038262 96.000000
65.057744 99.000000
65.077227 80.000000
65.096709 94.000000
65.116192 102.000000
65.135674 96.000000
65.155156 89.000000
65.174639 86.000000
65.194121 94.000000
65.213603 111.000000
65.233086 81.000000
65.252568 86.000000
65.272051 88.000000
65.291533 89.000000
65.311015 88.000000
65.330498 99.000000
65.349980 92.000000
65.369462 91.000000
65.388945 111.000000
65.408427 112.000000
65.427909 109.000000
65.447392 105.000000
65.466874 96.000000
65.486357 88.000000
65.505839 119.000000
65.525321 127.000000
65.544804 131.000000
65.564286 149.000000
65.583768 151.000000
65.603251 149.000000
65.622733 172.000000
65.642216 175.000000
65.661698 197.000000
65.681180 222.000000
65.700663 269.000000
65.720145 332.000000
65.739627 396.000000
65.759110 504.000000
65.778592 483.000000
65.798075 471.000000
65.817557 301.000000
65.837039 257.000000
65.856522 207.000000
65.876004 218.000000
65.895486 243.000000
65.914969 246.000000
65.934451 302.000000
65.953933 286.000000
65.973416 258.000000
65.992898 252.000000
66.012381 182.000000
66.031863 152.000000
66.051345 129.000000
66.070828 129.000000
66.090310 113.000000
66.109792 116.000000
66.129275 102.000000
66.148757 106.000000
66.168240 100.000000
66.187722 106.000000
66.207204 104.000000
66.226687 99.000000
66.246169 92.000000
66.265651 102.000000
66.285134 96.000000
66.304616 97.000000
66.324098 100.000000
66.343581 93.000000
66.363063 99.000000
66.382546 116.000000
66.402028 113.000000
66.421510 85.000000
66.440993 105.000000
66.460475 103.000000
66.479957 93.000000
66.499440 103.000000
66.518922 117.000000
66.538405 91.000000
66.557887 92.000000
66.577369 103.000000
66.596852 101.000000
66.616334 92.000000
66.635816 92.000000
66.655299 102.000000
66.674781 115.000000
66.694263 117.000000
66.713746 102.000000
66.733228 92.000000
66.752711 93.000000
66.772193 108.000000
66.791675 110.000000
66.811158 126.000000
66.830640 103.000000
66.850122 99.000000
66.869605 99.000000
66.889087 103.000000
66.908570 110.000000
66.928052 93.000000
66.947534 85.000000
66.967017 114.000000
66.986499 107.000000
67.005981 115.000000
67.025464 111.000000
67.044946 116.000000
67.064428 94.000000
67.083911 87.000000
67.103393 102.000000
67.122876 112.000000
67.142358 99.000000
67.161840 110.000000
67.181323 103.000000
67.200805 95.000000
67.220287 109.000000
67.239770 106.000000
67.259252 125.000000
67.278735 98.000000
67.298217 111.000000
67.317699 146.000000
67.337182 120.000000
67.356664 120.000000
67.376146 136.000000
67.395629 125.000000
67.415111 128.000000
67.434593 151.000000
67.454076 133.000000
67.473558 147.000000
67.493041 157.000000
67.512523 170.000000
67.532005 196.000000
67.551488 202.000000
67.570970 290.000000
67.590452 305.000000
67.609935 412.000000
67.629417 553.000000
67.648900 834.000000
67.668382 1152.000000
67.687864 1529.000000
67.707347 1880.000000
67.726829 1990.000000
67.746311 1739.000000
67.765794 1261.000000
67.785276 910.000000
67.804759 706.000000
67.824241 633.000000
67.843723 663.000000
67.863206 805.000000
67.882688 932.000000
67.902170 1074.000000
67.921653 1072.000000
67.941135 952.000000
67.960617 821.000000
67.980100 598.000000
67.999582 543.000000
68.019065 655.000000
68.038547 735.000000
68.058029 972.000000
68.077512 1380.000000
68.096994 1861.000000
68.116476 2055.000000
68.135959 1966.000000
68.155441 1440.000000
68.174924 1165.000000
68.194406 958.000000
68.213888 947.000000
68.233371 1231.000000
68.252853 1456.000000
68.272335 1817.000000
68.291818 2098.000000
68.311300 2025.000000
68.330782 1650.000000
68.350265 1286.000000
68.369747 903.000000
68.389230 663.000000
68.408712 611.000000
68.428194 635.000000
68.447677 678.000000
68.467159 738.000000
68.486641 705.000000
68.506124 678.000000
68.525606 514.000000
68.545089 385.000000
68.564571 261.000000
68.584053 230.000000
68.603536 209.000000
68.623018 159.000000
68.642500 156.000000
68.661983 121.000000
68.681465 137.000000
68.700947 151.000000
68.720430 116.000000
68.739912 122.000000
68.759395 132.000000
68.778877 125.000000
68.798359 132.000000
68.817842 107.000000
68.837324 108.000000
68.856806 112.000000
68.876289 102.000000
68.895771 104.000000
68.915254 118.000000
68.934736 96.000000
68.954218 103.000000
68.973701 109.000000
68.993183 95.000000
69.012665 101.000000
69.032148 85.000000
69.051630 93.000000
69.071112 106.000000
69.090595 90.000000
69.110077 103.000000
69.129560 112.000000
69.149042 107.000000
69.168524 104.000000
69.188007 95.000000
69.207489 88.000000
69.226971 85.000000
69.246454 90.000000
69.265936 103.000000
69.285419 99.000000
69.304901 97.000000
69.324383 111.000000
69.343866 112.000000
69.363348 99.000000
69.382830 93.000000
69.402313 91.000000
69.421795 100.000000
69.441278 102.000000
69.460760 107.000000
69.480242 93.000000
69.499725 112.000000
69.519207 97.000000
69.538689 93.000000
69.558172 117.000000
69.577654 104.000000
69.597136 94.000000
69.616619 106.000000
69.636101 99.000000
69.655584 93.000000
69.675066 92.000000
69.694548 103.000000
69.714031 91.000000
69.733513 87.000000
69.752995 88.000000
69.772478 102.000000
69.791960 106.000000
69.811443 92.000000
69.830925 106.000000
69.850407 105.000000
69.869890 90.000000
69.889372 85.000000
69.908854 92.000000
69.928337 98.000000
69.947819 86.000000
69.967301 91.000000
69.986784 108.000000
70.006266 94.000000
70.025749 99.000000
