4.000000 38.000000
4.019482 37.000000
4.038965 44.000000
4.058447 31.000000
4.077929 36.000000
4.097412 40.000000
4.116894 40.000000
4.136377 40.000000
4.155859 33.000000
4.175341 42.000000
4.194824 35.000000
4.214306 41.000000
4.233788 32.000000
4.253271 32.000000
4.272753 37.000000
4.292236 26.000000
4.311718 37.000000
4.331200 29.000000
4.350683 25.000000
4.370165 37.000000
4.389647 36.000000
4.409130 33.000000
4.428612 31.000000
4.448094 33.000000
4.467577 36.000000
4.487059 35.000000
4.506542 28.000000
4.526024 32.000000
4.545506 34.000000
4.564989 23.000000
4.584471 27.000000
4.603953 27.000000
4.623436 19.000000
4.642918 38.000000
4.662401 24.000000
4.681883 31.000000
4.701365 21.000000
4.720848 16.000000
4.740330 29.000000
4.759812 29.000000
4.779295 25.000000
4.798777 26.000000
4.818259 26.000000
4.837742 37.000000
4.857224 20.000000
4.876707 19.000000
4.896189 23.000000
4.915671 19.000000
4.935154 25.000000
4.954636 25.000000
4.974118 21.000000
4.993601 20.000000
5.013083 23.000000
5.032566 27.000000
5.052048 20.000000
5.071530 19.000000
5.091013 16.000000
5.110495 24.000000
5.129977 29.000000
5.149460 23.000000
5.168942 22.000000
5.188425 27.000000
5.207907 24.000000
5.227389 19.000000
5.246872 27.000000
5.266354 23.000000
5.285836 24.000000
5.305319 22.000000
5.324801 30.000000
5.344283 19.000000
5.363766 16.000000
5.383248 24.000000
5.402731 27.000000
5.422213 18.000000
5.441695 19.000000
5.461178 20.000000
5.480660 23.000000
5.500142 24.000000
5.519625 18.000000
5.539107 27.000000
5.558590 21.000000
5.578072 25.000000
5.597554 22.000000
5.617037 21.000000
5.636519 27.000000
5.656001 17.000000
5.675484 11.000000
5.694966 12.000000
5.714448 21.000000
5.733931 29.000000
5.753413 15.000000
5.772896 24.000000
5.792378 23.000000
5.811860 20.000000
5.831343 17.000000
5.850825 21.000000
5.870307 24.000000
5.889790 20.000000
5.909272 21.000000
5.928755 23.000000
5.948237 19.000000
5.967719 25.000000
5.987202 24.000000
6.006684 19.000000
6.026166 22.000000
6.045649 17.000000
6.065131 24.000000
6.084613 15.000000
6.104096 21.000000
6.123578 28.000000
6.143061 21.000000
6.162543 15.000000
6.182025 14.000000
6.201508 22.000000
6.220990 17.000000
6.240472 16.000000
6.259955 23.000000
6.279437 19.000000
6.298920 17.000000
6.318402 11.000000
6.337884 11.000000
6.357367 17.000000
6.376849 26.000000
6.396331 23.000000
6.415814 19.000000
6.435296 18.000000
6.454778 18.000000
6.474261 14.000000
6.493743 16.000000
6.513226 12.000000
6.532708 24.000000
6.552190 15.000000
6.571673 24.000000
6.591155 19.000000
6.610637 16.000000
6.630120 17.000000
6.649602 20.000000
6.669085 14.000000
6.688567 13.000000
6.708049 18.000000
6.727532 16.000000
6.747014 17.000000
6.766496 17.000000
6.785979 9.000000
6.805461 10.000000
6.824944 12.000000
6.844426 18.000000
6.863908 11.000000
6.883391 15.000000
6.902873 17.000000
6.922355 20.000000
6.941838 19.000000
6.961320 19.000000
6.980802 17.000000
7.000285 22.000000
7.019767 16.000000
7.039250 11.000000
7.058732 14.000000
7.078214 10.000000
7.097697 9.000000
7.117179 13.000000
7.136661 16.000000
7.156144 13.000000
7.175626 16.000000
7.195109 10.000000
7.214591 10.000000
7.234073 17.000000
7.253556 12.000000
7.273038 11.000000
7.292520 17.000000
7.312003 8.000000
7.331485 16.000000
7.350967 18.000000
7.370450 9.000000
7.389932 14.000000
7.409415 9.000000
7.428897 15.000000
7.448379 8.000000
7.467862 11.000000
7.487344 9.000000
7.506826 10.000000
7.526309 15.000000
7.545791 12.000000
7.565274 13.000000
7.584756 9.000000
7.604238 13.000000
7.623721 15.000000
7.643203 4.000000
7.662685 15.000000
7.682168 6.000000
7.701650 14.000000
7.721132 13.000000
7.740615 10.000000
7.760097 14.000000
7.779580 14.000000
7.799062 8.000000
7.818544 6.000000
7.838027 11.000000
7.857509 16.000000
7.876991 11.000000
7.896474 13.000000
7.915956 17.000000
7.935439 8.000000
7.954921 13.000000
7.974403 13.000000
7.993886 17.000000
8.013368 12.000000
8.032850 13.000000
8.052333 14.000000
8.071815 12.000000
8.091297 23.000000
8.110780 20.000000
8.130262 17.000000
8.149745 14.000000
8.169227 15.000000
8.188709 25.000000
8.208192 10.000000
8.227674 18.000000
8.247156 8.000000
8.266639 12.000000
8.286121 23.000000
8.305604 11.000000
8.325086 5.000000
8.344568 10.000000
8.364051 6.000000
8.383533 16.000000
8.403015 16.000000
8.422498 11.000000
8.441980 17.000000
8.461463 13.000000
8.480945 14.000000
8.500427 10.000000
8.519910 18.000000
8.539392 12.000000
8.558874 14.000000
8.578357 8.000000
8.597839 10.000000
8.617321 16.000000
8.636804 6.000000
8.656286 9.000000
8.675769 14.000000
8.695251 13.000000
8.714733 17.000000
8.734216 8.000000
8.753698 14.000000
8.773180 18.000000
8.792663 16.000000
8.812145 20.000000
8.831628 16.000000
8.851110 10.000000
8.870592 7.000000
8.890075 12.000000
8.909557 15.000000
8.929039 14.000000
8.948522 14.000000
8.968004 12.000000
8.987486 18.000000
9.006969 9.000000
9.026451 13.000000
9.045934 8.000000
9.065416 12.000000
9.084898 12.000000
9.104381 12.000000
9.123863 18.000000
9.143345 13.000000
9.162828 17.000000
9.182310 12.000000
9.201793 9.000000
9.221275 8.000000
9.240757 16.000000
9.260240 15.000000
9.279722 15.000000
9.299204 17.000000
9.318687 9.000000
9.338169 14.000000
9.357651 17.000000
9.377134 10.000000
9.396616 15.000000
9.416099 13.000000
9.435581 11.000000
9.455063 20.000000
9.474546 12.000000
9.494028 8.000000
9.513510 5.000000
9.532993 9.000000
9.552475 20.000000
9.571958 11.000000
9.591440 11.000000
9.610922 10.000000
9.630405 8.000000
9.649887 8.000000
9.669369 17.000000
9.688852 16.000000
9.708334 14.000000
9.727816 13.000000
9.747299 8.000000
9.766781 6.000000
9.786264 16.000000
9.805746 19.000000
9.825228 18.000000
9.844711 20.000000
9.864193 7.000000
9.883675 11.000000
9.903158 14.000000
9.922640 10.000000
9.942123 15.000000
9.961605 17.000000
9.981087 12.000000
10.000570 9.000000
10.020052 10.000000
10.039534 14.000000
10.059017 7.000000
10.078499 12.000000
10.097982 9.000000
10.117464 17.000000
10.136946 10.000000
10.156429 19.000000
10.175911 8.000000
10.195393 8.000000
10.214876 20.000000
10.234358 11.000000
10.253840 12.000000
10.273323 9.000000
10.292805 15.000000
10.312288 10.000000
10.331770 11.000000
10.351252 5.000000
10.370735 9.000000
10.390217 9.000000
10.409699 6.000000
10.429182 12.000000
10.448664 7.000000
10.468147 5.000000
10.487629 12.000000
10.507111 10.000000
10.526594 13.000000
10.546076 6.000000
10.565558 12.000000
10.585041 12.000000
10.604523 8.000000
10.624005 11.000000
10.643488 9.000000
10.662970 13.000000
10.682453 14.000000
10.701935 12.000000
10.721417 8.000000
10.740900 10.000000
10.760382 13.000000
10.779864 11.000000
10.799347 12.000000
10.818829 6.000000
10.838312 6.000000
10.857794 14.000000
10.877276 14.000000
10.896759 13.000000
10.916241 16.000000
10.935723 8.000000
10.955206 8.000000
10.974688 15.000000
10.994170 8.000000
11.013653 8.000000
11.033135 5.000000
11.052618 8.000000
11.072100 14.000000
11.091582 10.000000
11.111065 12.000000
11.130547 9.000000
11.150029 16.000000
11.169512 15.000000
11.188994 13.000000
11.208477 8.000000
11.227959 14.000000
11.247441 9.000000
11.266924 12.000000
11.286406 7.000000
11.305888 12.000000
11.325371 8.000000
11.344853 15.000000
11.364335 9.000000
11.383818 17.000000
11.403300 9.000000
11.422783 17.000000
11.442265 10.000000
11.461747 13.000000
11.481230 8.000000
11.500712 8.000000
11.520194 10.000000
11.539677 6.000000
11.559159 13.000000
11.578642 12.000000
11.598124 11.000000
11.617606 1.000000
11.637089 8.000000
11.656571 8.000000
11.676053 15.000000
11.695536 10.000000
11.715018 9.000000
11.734500 7.000000
11.753983 10.000000
11.773465 9.000000
11.792948 13.000000
11.812430 11.000000
11.831912 6.000000
11.851395 7.000000
11.870877 5.000000
11.890359 10.000000
11.909842 10.000000
11.929324 9.000000
11.948807 12.000000
11.968289 7.000000
11.987771 15.000000
12.007254 13.000000
12.026736 10.000000
12.046218 8.000000
12.065701 9.000000
12.085183 8.000000
12.104666 8.000000
12.124148 6.000000
12.143630 11.000000
12.163113 18.000000
12.182595 5.000000
12.202077 8.000000
12.221560 5.000000
12.241042 9.000000
12.260524 11.000000
12.280007 14.000000
12.299489 6.000000
12.318972 10.000000
12.338454 6.000000
12.357936 6.000000
12.377419 13.000000
12.396901 8.000000
12.416383 12.000000
12.435866 9.000000
12.455348 13.000000
12.474831 13.000000
12.494313 8.000000
12.513795 7.000000
12.533278 7.000000
12.552760 6.000000
12.572242 7.000000
12.591725 6.000000
12.611207 4.000000
12.630689 7.000000
12.650172 8.000000
12.669654 2.000000
12.689137 7.000000
12.708619 5.000000
12.728101 11.000000
12.747584 2.000000
12.767066 14.000000
12.786548 7.000000
12.806031 15.000000
12.825513 9.000000
12.844996 10.000000
12.864478 17.000000
12.883960 6.000000
12.903443 4.000000
12.922925 15.000000
12.942407 10.000000
12.961890 12.000000
12.981372 12.000000
13.000854 10.000000
13.020337 9.000000
13.039819 14.000000
13.059302 9.000000
13.078784 9.000000
13.098266 12.000000
13.117749 5.000000
13.137231 13.000000
13.156713 13.000000
13.176196 7.000000
13.195678 6.000000
13.215161 9.000000
13.234643 7.000000
13.254125 9.000000
13.273608 8.000000
13.293090 7.000000
13.312572 7.000000
13.332055 7.000000
13.351537 11.000000
13.371019 14.000000
13.390502 12.000000
13.409984 4.000000
13.429467 8.000000
13.448949 5.000000
13.468431 7.000000
13.487914 5.000000
13.507396 9.000000
13.526878 4.000000
13.546361 8.000000
13.565843 5.000000
13.585326 7.000000
13.604808 9.000000
13.624290 8.000000
13.643773 15.000000
13.663255 8.000000
13.682737 8.000000
13.702220 9.000000
13.721702 12.000000
13.741185 15.000000
13.760667 8.000000
13.780149 6.000000
13.799632 10.000000
13.819114 4.000000
13.838596 8.000000
13.858079 7.000000
13.877561 6.000000
13.897043 6.000000
13.916526 6.000000
13.936008 7.000000
13.955491 7.000000
13.974973 9.000000
13.994455 13.000000
14.013938 11.000000
14.033420 8.000000
14.052902 6.000000
14.072385 6.000000
14.091867 9.000000
14.111350 4.000000
14.130832 8.000000
14.150314 6.000000
14.169797 7.000000
14.189279 8.000000
14.208761 10.000000
14.228244 6.000000
14.247726 7.000000
14.267208 15.000000
14.286691 12.000000
14.306173 11.000000
14.325656 8.000000
14.345138 9.000000
14.364620 5.000000
14.384103 5.000000
14.403585 12.000000
14.423067 6.000000
14.442550 12.000000
14.462032 8.000000
14.481515 6.000000
14.500997 5.000000
14.520479 4.000000
14.539962 11.000000
14.559444 15.000000
14.578926 6.000000
14.598409 15.000000
14.617891 11.000000
14.637373 5.000000
14.656856 10.000000
14.676338 11.000000
14.695821 13.000000
14.715303 7.000000
14.734785 8.000000
14.754268 7.000000
14.773750 7.000000
14.793232 8.000000
14.812715 9.000000
14.832197 4.000000
14.851680 12.000000
14.871162 10.000000
14.890644 6.000000
14.910127 3.000000
14.929609 7.000000
14.949091 6.000000
14.968574 14.000000
14.988056 5.000000
15.007538 4.000000
15.027021 8.000000
15.046503 3.000000
15.065986 13.000000
15.085468 8.000000
15.104950 7.000000
15.124433 7.000000
15.143915 7.000000
15.163397 8.000000
15.182880 5.000000
15.202362 6.000000
15.221845 6.000000
15.241327 8.000000
15.260809 4.000000
15.280292 5.000000
15.299774 8.000000
15.319256 8.000000
15.338739 10.000000
15.358221 4.000000
15.377704 9.000000
15.397186 7.000000
15.416668 9.000000
15.436151 11.000000
15.455633 8.000000
15.475115 7.000000
15.494598 6.000000
15.514080 7.000000
15.533562 6.000000
15.553045 15.000000
15.572527 7.000000
15.592010 8.000000
15.611492 10.000000
15.630974 4.000000
15.650457 9.000000
15.669939 8.000000
15.689421 7.000000
15.708904 4.000000
15.728386 9.000000
15.747869 7.000000
15.767351 12.000000
15.786833 8.000000
15.806316 10.000000
15.825798 13.000000
15.845280 6.000000
15.864763 9.000000
15.884245 6.000000
15.903727 10.000000
15.923210 10.000000
15.942692 5.000000
15.962175 3.000000
15.981657 5.000000
16.001139 10.000000
16.020622 10.000000
16.040104 6.000000
16.059586 5.000000
16.079069 6.000000
16.098551 9.000000
16.118034 9.000000
16.137516 8.000000
16.156998 6.000000
16.176481 3.000000
16.195963 14.000000
16.215445 6.000000
16.234928 7.000000
16.254410 6.000000
16.273892 8.000000
16.293375 1.000000
16.312857 6.000000
16.332340 3.000000
16.351822 5.000000
16.371304 4.000000
16.390787 10.000000
16.410269 8.000000
16.429751 6.000000
16.449234 8.000000
16.468716 7.000000
16.488199 5.000000
16.507681 7.000000
16.527163 7.000000
16.546646 4.000000
16.566128 8.000000
16.585610 5.000000
16.605093 6.000000
16.624575 7.000000
16.644057 4.000000
16.663540 3.000000
16.683022 10.000000
16.702505 2.000000
16.721987 7.000000
16.741469 7.000000
16.760952 9.000000
16.780434 5.000000
16.799916 4.000000
16.819399 6.000000
16.838881 7.000000
16.858364 3.000000
16.877846 8.000000
16.897328 8.000000
16.916811 8.000000
16.936293 4.000000
16.955775 7.000000
16.975258 6.000000
16.994740 6.000000
17.014222 4.000000
17.033705 6.000000
17.053187 7.000000
17.072670 7.000000
17.092152 8.000000
17.111634 13.000000
17.131117 4.000000
17.150599 3.000000
17.170081 6.000000
17.189564 5.000000
17.209046 7.000000
17.228529 7.000000
17.248011 7.000000
17.267493 7.000000
17.286976 3.000000
17.306458 11.000000
17.325940 12.000000
17.345423 5.000000
17.364905 7.000000
17.384388 10.000000
17.403870 6.000000
17.423352 5.000000
17.442835 1.000000
17.462317 10.000000
17.481799 6.000000
17.501282 6.000000
17.520764 5.000000
17.540246 8.000000
17.559729 4.000000
17.579211 9.000000
17.598694 8.000000
17.618176 8.000000
17.637658 7.000000
17.657141 5.000000
17.676623 11.000000
17.696105 10.000000
17.715588 4.000000
17.735070 5.000000
17.754553 11.000000
17.774035 8.000000
17.793517 6.000000
17.813000 3.000000
17.832482 5.000000
17.851964 3.000000
17.871447 4.000000
17.890929 5.000000
17.910411 3.000000
17.929894 5.000000
17.949376 7.000000
17.968859 10.000000
17.988341 7.000000
18.007823 8.000000
18.027306 6.000000
18.046788 3.000000
18.066270 7.000000
18.085753 6.000000
18.105235 4.000000
18.124718 5.000000
18.144200 8.000000
18.163682 5.000000
18.183165 8.000000
18.202647 4.000000
18.222129 6.000000
18.241612 11.000000
18.261094 5.000000
18.280576 7.000000
18.300059 7.000000
18.319541 5.000000
18.339024 11.000000
18.358506 6.000000
18.377988 3.000000
18.397471 4.000000
18.416953 8.000000
18.436435 13.000000
18.455918 1.000000
18.475400 6.000000
18.494883 5.000000
18.514365 2.000000
18.533847 4.000000
18.553330 2.000000
18.572812 5.000000
18.592294 3.000000
18.611777 5.000000
18.631259 4.000000
18.650741 3.000000
18.670224 6.000000
18.689706 8.000000
18.709189 6.000000
18.728671 3.000000
18.748153 3.000000
18.767636 3.000000
18.787118 10.000000
18.806600 5.000000
18.826083 4.000000
18.845565 4.000000
18.865048 6.000000
18.884530 4.000000
18.904012 3.000000
18.923495 6.000000
18.942977 13.000000
18.962459 4.000000
18.981942 3.000000
19.001424 6.000000
19.020907 4.000000
19.040389 10.000000
19.059871 2.000000
19.079354 2.000000
19.098836 4.000000
19.118318 9.000000
19.137801 3.000000
19.157283 8.000000
19.176765 5.000000
19.196248 5.000000
19.215730 7.000000
19.235213 5.000000
19.254695 5.000000
19.274177 5.000000
19.293660 8.000000
19.313142 10.000000
19.332624 7.000000
19.352107 7.000000
19.371589 6.000000
19.391072 2.000000
19.410554 6.000000
19.430036 6.000000
19.449519 5.000000
19.469001 2.000000
19.488483 8.000000
19.507966 4.000000
19.527448 6.000000
19.546930 7.000000
19.566413 7.000000
19.585895 4.000000
19.605378 3.000000
19.624860 4.000000
19.644342 2.000000
19.663825 6.000000
19.683307 5.000000
19.702789 4.000000
19.722272 8.000000
19.741754 4.000000
19.761237 6.000000
19.780719 7.000000
19.800201 8.000000
19.819684 4.000000
19.839166 8.000000
19.858648 7.000000
19.878131 7.000000
19.897613 8.000000
19.917095 10.000000
19.936578 4.000000
19.956060 3.000000
19.975543 4.000000
19.995025 7.000000
20.014507 4.000000
20.033990 7.000000
20.053472 4.000000
20.072954 5.000000
20.092437 3.000000
20.111919 5.000000
20.131402 6.000000
20.150884 7.000000
20.170366 7.000000
20.189849 7.000000
20.209331 4.000000
20.228813 10.000000
20.248296 7.000000
20.267778 13.000000
20.287260 7.000000
20.306743 7.000000
20.326225 12.000000
20.345708 10.000000
20.365190 9.000000
20.384672 6.000000
20.404155 6.000000
20.423637 13.000000
20.443119 6.000000
20.462602 12.000000
20.482084 13.000000
20.501567 6.000000
20.521049 10.000000
20.540531 11.000000
20.560014 6.000000
20.579496 8.000000
20.598978 7.000000
20.618461 15.000000
20.637943 9.000000
20.657426 17.000000
20.676908 15.000000
20.696390 20.000000
20.715873 28.000000
20.735355 41.000000
20.754837 76.000000
20.774320 129.000000
20.793802 262.000000
20.813284 347.000000
20.832767 489.000000
20.852249 457.000000
20.871732 340.000000
20.891214 284.000000
20.910696 160.000000
20.930179 71.000000
20.949661 24.000000
20.969143 14.000000
20.988626 8.000000
21.008108 14.000000
21.027591 7.000000
21.047073 13.000000
21.066555 12.000000
21.086038 9.000000
21.105520 9.000000
21.125002 7.000000
21.144485 7.000000
21.163967 5.000000
21.183449 11.000000
21.202932 7.000000
21.222414 12.000000
21.241897 6.000000
21.261379 8.000000
21.280861 4.000000
21.300344 8.000000
21.319826 3.000000
21.339308 4.000000
21.358791 11.000000
21.378273 4.000000
21.397756 8.000000
21.417238 7.000000
21.436720 7.000000
21.456203 5.000000
21.475685 7.000000
21.495167 5.000000
21.514650 4.000000
21.534132 6.000000
21.553614 7.000000
21.573097 5.000000
21.592579 14.000000
21.612062 8.000000
21.631544 6.000000
21.651026 8.000000
21.670509 7.000000
21.689991 7.000000
21.709473 5.000000
21.728956 8.000000
21.748438 3.000000
21.767921 9.000000
21.787403 5.000000
21.806885 7.000000
21.826368 8.000000
21.845850 2.000000
21.865332 6.000000
21.884815 5.000000
21.904297 3.000000
21.923779 9.000000
21.943262 11.000000
21.962744 6.000000
21.982227 4.000000
22.001709 11.000000
22.021191 9.000000
22.040674 11.000000
22.060156 4.000000
22.079638 3.000000
22.099121 8.000000
22.118603 5.000000
22.138086 3.000000
22.157568 7.000000
22.177050 3.000000
22.196533 5.000000
22.216015 8.000000
22.235497 1.000000
22.254980 3.000000
22.274462 13.000000
22.293945 5.000000
22.313427 10.000000
22.332909 2.000000
22.352392 9.000000
22.371874 6.000000
22.391356 4.000000
22.410839 3.000000
22.430321 8.000000
22.449803 5.000000
22.469286 5.000000
22.488768 4.000000
22.508251 12.000000
22.527733 5.000000
22.547215 5.000000
22.566698 4.000000
22.586180 4.000000
22.605662 10.000000
22.625145 10.000000
22.644627 3.000000
22.664110 5.000000
22.683592 9.000000
22.703074 12.000000
22.722557 5.000000
22.742039 6.000000
22.761521 8.000000
22.781004 4.000000
22.800486 10.000000
22.819968 3.000000
22.839451 3.000000
22.858933 7.000000
22.878416 5.000000
22.897898 8.000000
22.917380 9.000000
22.936863 7.000000
22.956345 2.000000
22.975827 6.000000
22.995310 3.000000
23.014792 6.000000
23.034275 3.000000
23.053757 6.000000
23.073239 11.000000
23.092722 7.000000
23.112204 9.000000
23.131686 8.000000
23.151169 2.000000
23.170651 1.000000
23.190133 6.000000
23.209616 1.000000
23.229098 4.000000
23.248581 4.000000
23.268063 4.000000
23.287545 2.000000
23.307028 10.000000
23.326510 2.000000
23.345992 3.000000
23.365475 7.000000
23.384957 3.000000
23.404440 7.000000
23.423922 6.000000
23.443404 5.000000
23.462887 8.000000
23.482369 8.000000
23.501851 5.000000
23.521334 7.000000
23.540816 4.000000
23.560298 2.000000
23.579781 7.000000
23.599263 9.000000
23.618746 2.000000
23.638228 3.000000
23.657710 5.000000
23.677193 8.000000
23.696675 8.000000
23.716157 8.000000
23.735640 8.000000
23.755122 4.000000
23.774605 3.000000
23.794087 7.000000
23.813569 6.000000
23.833052 7.000000
23.852534 7.000000
23.872016 8.000000
23.891499 10.000000
23.910981 4.000000
23.930463 10.000000
23.949946 6.000000
23.969428 10.000000
23.988911 10.000000
24.008393 15.000000
24.027875 13.000000
24.047358 10.000000
24.066840 7.000000
24.086322 4.000000
24.105805 3.000000
24.125287 2.000000
24.144770 11.000000
24.164252 9.000000
24.183734 9.000000
24.203217 6.000000
24.222699 4.000000
24.242181 5.000000
24.261664 1.000000
24.281146 7.000000
24.300629 7.000000
24.320111 5.000000
24.339593 9.000000
24.359076 7.000000
24.378558 7.000000
24.398040 3.000000
24.417523 3.000000
24.437005 4.000000
24.456487 7.000000
24.475970 7.000000
24.495452 6.000000
24.514935 6.000000
24.534417 5.000000
24.553899 1.000000
24.573382 8.000000
24.592864 7.000000
24.612346 3.000000
24.631829 8.000000
24.651311 2.000000
24.670794 5.000000
24.690276 5.000000
24.709758 2.000000
24.729241 3.000000
24.748723 7.000000
24.768205 6.000000
24.787688 5.000000
24.807170 4.000000
24.826652 2.000000
24.846135 4.000000
24.865617 8.000000
24.885100 4.000000
24.904582 6.000000
24.924064 4.000000
24.943547 5.000000
24.963029 7.000000
24.982511 2.000000
25.001994 3.000000
25.021476 3.000000
25.040959 3.000000
25.060441 8.000000
25.079923 9.000000
25.099406 5.000000
25.118888 7.000000
25.138370 3.000000
25.157853 4.000000
25.177335 5.000000
25.196817 8.000000
25.216300 5.000000
25.235782 8.000000
25.255265 7.000000
25.274747 8.000000
25.294229 5.000000
25.313712 4.000000
25.333194 7.000000
25.352676 9.000000
25.372159 7.000000
25.391641 10.000000
25.411124 9.000000
25.430606 6.000000
25.450088 4.000000
25.469571 1.000000
25.489053 2.000000
25.508535 8.000000
25.528018 4.000000
25.547500 4.000000
25.566982 5.000000
25.586465 4.000000
25.605947 3.000000
25.625430 3.000000
25.644912 3.000000
25.664394 10.000000
25.683877 9.000000
25.703359 12.000000
25.722841 4.000000
25.742324 4.000000
25.761806 17.000000
25.781289 8.000000
25.800771 10.000000
25.820253 11.000000
25.839736 14.000000
25.859218 9.000000
25.878700 11.000000
25.898183 14.000000
25.917665 15.000000
25.937148 14.000000
25.956630 10.000000
25.976112 10.000000
25.995595 9.000000
26.015077 14.000000
26.034559 11.000000
26.054042 10.000000
26.073524 15.000000
26.093006 14.000000
26.112489 9.000000
26.131971 11.000000
26.151454 8.000000
26.170936 7.000000
26.190418 14.000000
26.209901 17.000000
26.229383 16.000000
26.248865 13.000000
26.268348 19.000000
26.287830 14.000000
26.307313 24.000000
26.326795 15.000000
26.346277 22.000000
26.365760 19.000000
26.385242 26.000000
26.404724 23.000000
26.424207 27.000000
26.443689 27.000000
26.463171 42.000000
26.482654 62.000000
26.502136 119.000000
26.521619 179.000000
26.541101 334.000000
26.560583 617.000000
26.580066 1080.000000
26.599548 1562.000000
26.619030 1954.000000
26.638513 1639.000000
26.657995 1073.000000
26.677478 945.000000
26.696960 906.000000
26.716442 479.000000
26.735925 146.000000
26.755407 81.000000
26.774889 53.000000
26.794372 42.000000
26.813854 19.000000
26.833336 22.000000
26.852819 22.000000
26.872301 21.000000
26.891784 23.000000
26.911266 12.000000
26.930748 12.000000
26.950231 13.000000
26.969713 18.000000
26.989195 17.000000
27.008678 21.000000
27.028160 9.000000
27.047643 4.000000
27.067125 9.000000
27.086607 19.000000
27.106090 9.000000
27.125572 10.000000
27.145054 11.000000
27.164537 10.000000
27.184019 11.000000
27.203501 6.000000
27.222984 4.000000
27.242466 11.000000
27.261949 8.000000
27.281431 10.000000
27.300913 12.000000
27.320396 8.000000
27.339878 4.000000
27.359360 5.000000
27.378843 10.000000
27.398325 9.000000
27.417808 12.000000
27.437290 11.000000
27.456772 8.000000
27.476255 9.000000
27.495737 8.000000
27.515219 4.000000
27.534702 6.000000
27.554184 10.000000
27.573667 7.000000
27.593149 6.000000
27.612631 9.000000
27.632114 5.000000
27.651596 11.000000
27.671078 9.000000
27.690561 7.000000
27.710043 4.000000
27.729525 8.000000
27.749008 5.000000
27.768490 7.000000
27.787973 10.000000
27.807455 5.000000
27.826937 9.000000
27.846420 13.000000
27.865902 9.000000
27.885384 6.000000
27.904867 10.000000
27.924349 7.000000
27.943832 7.000000
27.963314 8.000000
27.982796 11.000000
28.002279 7.000000
28.021761 6.000000
28.041243 8.000000
28.060726 6.000000
28.080208 7.000000
28.099690 6.000000
28.119173 7.000000
28.138655 8.000000
28.158138 5.000000
28.177620 7.000000
28.197102 5.000000
28.216585 2.000000
28.236067 5.000000
28.255549 6.000000
28.275032 10.000000
28.294514 8.000000
28.313997 8.000000
28.333479 8.000000
28.352961 10.000000
28.372444 7.000000
28.391926 7.000000
28.411408 5.000000
28.430891 6.000000
28.450373 10.000000
28.469855 6.000000
28.489338 7.000000
28.508820 4.000000
28.528303 3.000000
28.547785 7.000000
28.567267 5.000000
28.586750 2.000000
28.606232 10.000000
28.625714 8.000000
28.645197 3.000000
28.664679 3.000000
28.684162 9.000000
28.703644 9.000000
28.723126 6.000000
28.742609 6.000000
28.762091 3.000000
28.781573 11.000000
28.801056 7.000000
28.820538 3.000000
28.840020 6.000000
28.859503 6.000000
28.878985 3.000000
28.898468 3.000000
28.917950 7.000000
28.937432 6.000000
28.956915 3.000000
28.976397 9.000000
28.995879 2.000000
29.015362 6.000000
29.034844 7.000000
29.054327 5.000000
29.073809 9.000000
29.093291 9.000000
29.112774 10.000000
29.132256 6.000000
29.151738 6.000000
29.171221 4.000000
29.190703 10.000000
29.210185 7.000000
29.229668 3.000000
29.249150 7.000000
29.268633 8.000000
29.288115 2.000000
29.307597 7.000000
29.327080 6.000000
29.346562 10.000000
29.366044 7.000000
29.385527 9.000000
29.405009 9.000000
29.424492 6.000000
29.443974 9.000000
29.463456 8.000000
29.482939 4.000000
29.502421 4.000000
29.521903 5.000000
29.541386 8.000000
29.560868 6.000000
29.580351 4.000000
29.599833 4.000000
29.619315 5.000000
29.638798 3.000000
29.658280 6.000000
29.677762 9.000000
29.697245 6.000000
29.716727 9.000000
29.736209 8.000000
29.755692 3.000000
29.775174 6.000000
29.794657 5.000000
29.814139 2.000000
29.833621 6.000000
29.853104 7.000000
29.872586 0.000001
29.892068 9.000000
29.911551 10.000000
29.931033 2.000000
29.950516 4.000000
29.969998 7.000000
29.989480 7.000000
30.008963 14.000000
30.028445 3.000000
30.047927 6.000000
30.067410 6.000000
30.086892 9.000000
30.106374 5.000000
30.125857 7.000000
30.145339 9.000000
30.164822 8.000000
30.184304 4.000000
30.203786 6.000000
30.223269 3.000000
30.242751 6.000000
30.262233 3.000000
30.281716 2.000000
30.301198 3.000000
30.320681 9.000000
30.340163 6.000000
30.359645 3.000000
30.379128 6.000000
30.398610 6.000000
30.418092 7.000000
30.437575 2.000000
30.457057 9.000000
30.476539 4.000000
30.496022 7.000000
30.515504 2.000000
30.534987 4.000000
30.554469 7.000000
30.573951 7.000000
30.593434 8.000000
30.612916 6.000000
30.632398 7.000000
30.651881 6.000000
30.671363 5.000000
30.690846 6.000000
30.710328 7.000000
30.729810 10.000000
30.749293 4.000000
30.768775 6.000000
30.788257 9.000000
30.807740 5.000000
30.827222 7.000000
30.846704 9.000000
30.866187 3.000000
30.885669 10.000000
30.905152 5.000000
30.924634 5.000000
30.944116 3.000000
30.963599 9.000000
30.983081 8.000000
31.002563 4.000000
31.022046 6.000000
31.041528 6.000000
31.061011 7.000000
31.080493 7.000000
31.099975 5.000000
31.119458 5.000000
31.138940 2.000000
31.158422 4.000000
31.177905 3.000000
31.197387 9.000000
31.216870 1.000000
31.236352 7.000000
31.255834 8.000000
31.275317 4.000000
31.294799 2.000000
31.314281 6.000000
31.333764 5.000000
31.353246 4.000000
31.372728 4.000000
31.392211 6.000000
31.411693 5.000000
31.431176 6.000000
31.450658 7.000000
31.470140 5.000000
31.489623 2.000000
31.509105 6.000000
31.528587 2.000000
31.548070 5.000000
31.567552 6.000000
31.587035 6.000000
31.606517 3.000000
31.625999 4.000000
31.645482 5.000000
31.664964 5.000000
31.684446 7.000000
31.703929 10.000000
31.723411 3.000000
31.742893 4.000000
31.762376 4.000000
31.781858 4.000000
31.801341 5.000000
31.820823 5.000000
31.840305 4.000000
31.859788 4.000000
31.879270 4.000000
31.898752 4.000000
31.918235 6.000000
31.937717 4.000000
31.957200 4.000000
31.976682 3.000000
31.996164 3.000000
32.015647 5.000000
32.035129 9.000000
32.054611 8.000000
32.074094 4.000000
32.093576 4.000000
32.113058 2.000000
32.132541 3.000000
32.152023 5.000000
32.171506 2.000000
32.190988 1.000000
32.210470 7.000000
32.229953 6.000000
32.249435 2.000000
32.268917 6.000000
32.288400 1.000000
32.307882 2.000000
32.327365 2.000000
32.346847 1.000000
32.366329 8.000000
32.385812 1.000000
32.405294 5.000000
32.424776 6.000000
32.444259 6.000000
32.463741 8.000000
32.483223 6.000000
32.502706 2.000000
32.522188 6.000000
32.541671 3.000000
32.561153 6.000000
32.580635 5.000000
32.600118 7.000000
32.619600 7.000000
32.639082 3.000000
32.658565 5.000000
32.678047 2.000000
32.697530 4.000000
32.717012 4.000000
32.736494 4.000000
32.755977 7.000000
32.775459 10.000000
32.794941 7.000000
32.814424 3.000000
32.833906 4.000000
32.853389 5.000000
32.872871 10.000000
32.892353 9.000000
32.911836 5.000000
32.931318 5.000000
32.950800 5.000000
32.970283 3.000000
32.989765 11.000000
33.009247 7.000000
33.028730 0.000001
33.048212 3.000000
33.067695 5.000000
33.087177 5.000000
33.106659 4.000000
33.126142 9.000000
33.145624 7.000000
33.165106 6.000000
33.184589 2.000000
33.204071 3.000000
33.223554 3.000000
33.243036 7.000000
33.262518 5.000000
33.282001 2.000000
33.301483 6.000000
33.320965 2.000000
33.340448 4.000000
33.359930 6.000000
33.379412 2.000000
33.398895 3.000000
33.418377 5.000000
33.437860 3.000000
33.457342 6.000000
33.476824 4.000000
33.496307 7.000000
33.515789 5.000000
33.535271 9.000000
33.554754 6.000000
33.574236 6.000000
33.593719 2.000000
33.613201 3.000000
33.632683 7.000000
33.652166 6.000000
33.671648 5.000000
33.691130 9.000000
33.710613 8.000000
33.730095 4.000000
33.749577 5.000000
33.769060 9.000000
33.788542 9.000000
33.808025 7.000000
33.827507 2.000000
33.846989 1.000000
33.866472 2.000000
33.885954 2.000000
33.905436 6.000000
33.924919 8.000000
33.944401 6.000000
33.963884 4.000000
33.983366 2.000000
34.002848 4.000000
34.022331 1.000000
34.041813 4.000000
34.061295 4.000000
34.080778 4.000000
34.100260 4.000000
34.119742 6.000000
34.139225 4.000000
34.158707 3.000000
34.178190 1.000000
34.197672 6.000000
34.217154 3.000000
34.236637 9.000000
34.256119 4.000000
34.275601 6.000000
34.295084 5.000000
34.314566 2.000000
34.334049 4.000000
34.353531 4.000000
34.373013 4.000000
34.392496 1.000000
34.411978 3.000000
34.431460 2.000000
34.450943 5.000000
34.470425 2.000000
34.489908 2.000000
34.509390 2.000000
34.528872 3.000000
34.548355 2.000000
34.567837 8.000000
34.587319 10.000000
34.606802 5.000000
34.626284 3.000000
34.645766 2.000000
34.665249 3.000000
34.684731 4.000000
34.704214 4.000000
34.723696 1.000000
34.743178 2.000000
34.762661 3.000000
34.782143 3.000000
34.801625 5.000000
34.821108 8.000000
34.840590 5.000000
34.860073 3.000000
34.879555 4.000000
34.899037 3.000000
34.918520 5.000000
34.938002 6.000000
34.957484 5.000000
34.976967 6.000000
34.996449 2.000000
35.015931 2.000000
35.035414 4.000000
35.054896 4.000000
35.074379 5.000000
35.093861 5.000000
35.113343 4.000000
35.132826 4.000000
35.152308 5.000000
35.171790 4.000000
35.191273 3.000000
35.210755 1.000000
35.230238 3.000000
35.249720 5.000000
35.269202 3.000000
35.288685 5.000000
35.308167 5.000000
35.327649 5.000000
35.347132 3.000000
35.366614 4.000000
35.386096 5.000000
35.405579 7.000000
35.425061 5.000000
35.444544 5.000000
35.464026 5.000000
35.483508 6.000000
35.502991 4.000000
35.522473 2.000000
35.541955 16.000000
35.561438 7.000000
35.580920 3.000000
35.600403 9.000000
35.619885 7.000000
35.639367 5.000000
35.658850 2.000000
35.678332 5.000000
35.697814 3.000000
35.717297 4.000000
35.736779 2.000000
35.756261 5.000000
35.775744 4.000000
35.795226 8.000000
35.814709 3.000000
35.834191 4.000000
35.853673 4.000000
35.873156 4.000000
35.892638 5.000000
35.912120 5.000000
35.931603 3.000000
35.951085 6.000000
35.970568 3.000000
35.990050 4.000000
36.009532 7.000000
36.029015 5.000000
36.048497 4.000000
36.067979 9.000000
36.087462 2.000000
36.106944 5.000000
36.126426 8.000000
36.145909 3.000000
36.165391 7.000000
36.184874 3.000000
36.204356 1.000000
36.223838 5.000000
36.243321 3.000000
36.262803 4.000000
36.282285 1.000000
36.301768 7.000000
36.321250 10.000000
36.340733 6.000000
36.360215 7.000000
36.379697 13.000000
36.399180 10.000000
36.418662 18.000000
36.438144 19.000000
36.457627 50.000000
36.477109 67.000000
36.496592 101.000000
36.516074 110.000000
36.535556 132.000000
36.555039 91.000000
36.574521 72.000000
36.594003 68.000000
36.613486 68.000000
36.632968 47.000000
36.652450 27.000000
36.671933 21.000000
36.691415 16.000000
36.710898 8.000000
36.730380 10.000000
36.749862 7.000000
36.769345 2.000000
36.788827 4.000000
36.808309 6.000000
36.827792 3.000000
36.847274 2.000000
36.866757 4.000000
36.886239 5.000000
36.905721 5.000000
36.925204 5.000000
36.944686 4.000000
36.964168 4.000000
36.983651 3.000000
37.003133 6.000000
37.022615 4.000000
37.042098 3.000000
37.061580 2.000000
37.081063 5.000000
37.100545 2.000000
37.120027 6.000000
37.139510 3.000000
37.158992 7.000000
37.178474 4.000000
37.197957 5.000000
37.217439 3.000000
37.236922 2.000000
37.256404 3.000000
37.275886 5.000000
37.295369 8.000000
37.314851 1.000000
37.334333 4.000000
37.353816 3.000000
37.373298 2.000000
37.392780 2.000000
37.412263 5.000000
37.431745 6.000000
37.451228 3.000000
37.470710 5.000000
37.490192 4.000000
37.509675 4.000000
37.529157 2.000000
37.548639 10.000000
37.568122 5.000000
37.587604 2.000000
37.607087 3.000000
37.626569 1.000000
37.646051 4.000000
37.665534 0.000001
37.685016 1.000000
37.704498 5.000000
37.723981 8.000000
37.743463 6.000000
37.762945 4.000000
37.782428 2.000000
37.801910 4.000000
37.821393 4.000000
37.840875 4.000000
37.860357 7.000000
37.879840 3.000000
37.899322 5.000000
37.918804 1.000000
37.938287 3.000000
37.957769 2.000000
37.977252 4.000000
37.996734 4.000000
38.016216 2.000000
38.035699 5.000000
38.055181 2.000000
38.074663 1.000000
38.094146 6.000000
38.113628 2.000000
38.133111 4.000000
38.152593 4.000000
38.172075 1.000000
38.191558 4.000000
38.211040 4.000000
38.230522 4.000000
38.250005 2.000000
38.269487 9.000000
38.288969 3.000000
38.308452 1.000000
38.327934 4.000000
38.347417 2.000000
38.366899 1.000000
38.386381 0.000001
38.405864 5.000000
38.425346 3.000000
38.444828 2.000000
38.464311 4.000000
38.483793 5.000000
38.503276 2.000000
38.522758 4.000000
38.542240 2.000000
38.561723 4.000000
38.581205 1.000000
38.600687 4.000000
38.620170 5.000000
38.639652 5.000000
38.659134 5.000000
38.678617 6.000000
38.698099 5.000000
38.717582 4.000000
38.737064 4.000000
38.756546 8.000000
38.776029 10.000000
38.795511 3.000000
38.814993 8.000000
38.834476 6.000000
38.853958 6.000000
38.873441 3.000000
38.892923 3.000000
38.912405 3.000000
38.931888 3.000000
38.951370 5.000000
38.970852 2.000000
38.990335 5.000000
39.009817 4.000000
39.029299 3.000000
39.048782 5.000000
39.068264 6.000000
39.087747 7.000000
39.107229 5.000000
39.126711 5.000000
39.146194 9.000000
39.165676 9.000000
39.185158 3.000000
39.204641 6.000000
39.224123 7.000000
39.243606 11.000000
39.263088 5.000000
39.282570 3.000000
39.302053 7.000000
39.321535 10.000000
39.341017 16.000000
39.360500 17.000000
39.379982 45.000000
39.399464 58.000000
39.418947 89.000000
39.438429 109.000000
39.457912 96.000000
39.477394 69.000000
39.496876 49.000000
39.516359 50.000000
39.535841 62.000000
39.555323 55.000000
39.574806 28.000000
39.594288 20.000000
39.613771 16.000000
39.633253 7.000000
39.652735 6.000000
39.672218 5.000000
39.691700 3.000000
39.711182 11.000000
39.730665 1.000000
39.750147 9.000000
39.769630 8.000000
39.789112 2.000000
39.808594 5.000000
39.828077 5.000000
39.847559 5.000000
39.867041 3.000000
39.886524 7.000000
39.906006 3.000000
39.925488 4.000000
39.944971 6.000000
39.964453 4.000000
39.983936 7.000000
40.003418 5.000000
40.022900 3.000000
40.042383 10.000000
40.061865 6.000000
40.081347 13.000000
40.100830 5.000000
40.120312 5.000000
40.139795 8.000000
40.159277 9.000000
40.178759 14.000000
40.198242 20.000000
40.217724 30.000000
40.237206 35.000000
40.256689 48.000000
40.276171 57.000000
40.295653 59.000000
40.315136 33.000000
40.334618 21.000000
40.354101 21.000000
40.373583 33.000000
40.393065 21.000000
40.412548 17.000000
40.432030 9.000000
40.451512 6.000000
40.470995 6.000000
40.490477 10.000000
40.509960 3.000000
40.529442 2.000000
40.548924 5.000000
40.568407 5.000000
40.587889 10.000000
40.607371 8.000000
40.626854 4.000000
40.646336 5.000000
40.665818 4.000000
40.685301 9.000000
40.704783 3.000000
40.724266 8.000000
40.743748 4.000000
40.763230 3.000000
40.782713 8.000000
40.802195 5.000000
40.821677 6.000000
40.841160 0.000001
40.860642 3.000000
40.880125 3.000000
40.899607 1.000000
40.919089 3.000000
40.938572 4.000000
40.958054 4.000000
40.977536 5.000000
40.997019 4.000000
41.016501 3.000000
41.035983 4.000000
41.055466 7.000000
41.074948 3.000000
41.094431 4.000000
41.113913 2.000000
41.133395 5.000000
41.152878 5.000000
41.172360 4.000000
41.191842 5.000000
41.211325 5.000000
41.230807 6.000000
41.250290 4.000000
41.269772 5.000000
41.289254 4.000000
41.308737 0.000001
41.328219 7.000000
41.347701 6.000000
41.367184 8.000000
41.386666 3.000000
41.406149 1.000000
41.425631 2.000000
41.445113 4.000000
41.464596 0.000001
41.484078 2.000000
41.503560 6.000000
41.523043 5.000000
41.542525 5.000000
41.562007 2.000000
41.581490 4.000000
41.600972 4.000000
41.620455 7.000000
41.639937 5.000000
41.659419 3.000000
41.678902 3.000000
41.698384 6.000000
41.717866 4.000000
41.737349 2.000000
41.756831 2.000000
41.776314 4.000000
41.795796 4.000000
41.815278 3.000000
41.834761 3.000000
41.854243 4.000000
41.873725 3.000000
41.893208 7.000000
41.912690 8.000000
41.932172 2.000000
41.951655 7.000000
41.971137 10.000000
41.990620 8.000000
42.010102 4.000000
42.029584 4.000000
42.049067 5.000000
42.068549 3.000000
42.088031 5.000000
42.107514 3.000000
42.126996 2.000000
42.146479 2.000000
42.165961 9.000000
42.185443 2.000000
42.204926 3.000000
42.224408 6.000000
42.243890 5.000000
42.263373 8.000000
42.282855 8.000000
42.302337 14.000000
42.321820 18.000000
42.341302 14.000000
42.360785 32.000000
42.380267 57.000000
42.399749 98.000000
42.419232 136.000000
42.438714 111.000000
42.458196 83.000000
42.477679 51.000000
42.497161 52.000000
42.516644 51.000000
42.536126 55.000000
42.555608 49.000000
42.575091 28.000000
42.594573 17.000000
42.614055 11.000000
42.633538 11.000000
42.653020 4.000000
42.672502 10.000000
42.691985 7.000000
42.711467 5.000000
42.730950 4.000000
42.750432 6.000000
42.769914 5.000000
42.789397 8.000000
42.808879 6.000000
42.828361 5.000000
42.847844 6.000000
42.867326 11.000000
42.886809 1.000000
42.906291 4.000000
42.925773 3.000000
42.945256 1.000000
42.964738 3.000000
42.984220 4.000000
43.003703 6.000000
43.023185 4.000000
43.042667 2.000000
43.062150 8.000000
43.081632 5.000000
43.101115 1.000000
43.120597 2.000000
43.140079 5.000000
43.159562 4.000000
43.179044 5.000000
43.198526 3.000000
43.218009 5.000000
43.237491 3.000000
43.256974 5.000000
43.276456 3.000000
43.295938 5.000000
43.315421 8.000000
43.334903 6.000000
43.354385 5.000000
43.373868 2.000000
43.393350 2.000000
43.412833 2.000000
43.432315 6.000000
43.451797 3.000000
43.471280 2.000000
43.490762 5.000000
43.510244 2.000000
43.529727 5.000000
43.549209 6.000000
43.568691 5.000000
43.588174 3.000000
43.607656 3.000000
43.627139 8.000000
43.646621 3.000000
43.666103 4.000000
43.685586 5.000000
43.705068 2.000000
43.724550 3.000000
43.744033 4.000000
43.763515 4.000000
43.782998 4.000000
43.802480 2.000000
43.821962 2.000000
43.841445 1.000000
43.860927 4.000000
43.880409 5.000000
43.899892 2.000000
43.919374 1.000000
43.938856 6.000000
43.958339 7.000000
43.977821 3.000000
43.997304 4.000000
44.016786 2.000000
44.036268 3.000000
44.055751 2.000000
44.075233 4.000000
44.094715 2.000000
44.114198 0.000001
44.133680 1.000000
44.153163 3.000000
44.172645 2.000000
44.192127 4.000000
44.211610 4.000000
44.231092 2.000000
44.250574 4.000000
44.270057 2.000000
44.289539 3.000000
44.309021 3.000000
44.328504 3.000000
44.347986 2.000000
44.367469 2.000000
44.386951 4.000000
44.406433 7.000000
44.425916 5.000000
44.445398 5.000000
44.464880 6.000000
44.484363 5.000000
44.503845 4.000000
44.523328 6.000000
44.542810 4.000000
44.562292 2.000000
44.581775 5.000000
44.601257 2.000000
44.620739 4.000000
44.640222 1.000000
44.659704 4.000000
44.679186 1.000000
44.698669 4.000000
44.718151 4.000000
44.737634 5.000000
44.757116 3.000000
44.776598 2.000000
44.796081 5.000000
44.815563 7.000000
44.835045 6.000000
44.854528 4.000000
44.874010 7.000000
44.893493 2.000000
44.912975 2.000000
44.932457 5.000000
44.951940 5.000000
44.971422 4.000000
44.990904 5.000000
45.010387 4.000000
45.029869 4.000000
45.049352 9.000000
45.068834 5.000000
45.088316 6.000000
45.107799 3.000000
45.127281 5.000000
45.146763 3.000000
45.166246 1.000000
45.185728 3.000000
45.205210 2.000000
45.224693 9.000000
45.244175 3.000000
45.263658 4.000000
45.283140 4.000000
45.302622 4.000000
45.322105 3.000000
45.341587 6.000000
45.361069 3.000000
45.380552 2.000000
45.400034 5.000000
45.419517 3.000000
45.438999 4.000000
45.458481 5.000000
45.477964 4.000000
45.497446 5.000000
45.516928 6.000000
45.536411 5.000000
45.555893 6.000000
45.575375 3.000000
45.594858 8.000000
45.614340 8.000000
45.633823 5.000000
45.653305 5.000000
45.672787 14.000000
45.692270 20.000000
45.711752 29.000000
45.731234 30.000000
45.750717 51.000000
45.770199 60.000000
45.789682 63.000000
45.809164 45.000000
45.828646 22.000000
45.848129 27.000000
45.867611 25.000000
45.887093 29.000000
45.906576 34.000000
45.926058 22.000000
45.945540 18.000000
45.965023 10.000000
45.984505 5.000000
46.003988 7.000000
46.023470 3.000000
46.042952 3.000000
46.062435 4.000000
46.081917 3.000000
46.101399 4.000000
46.120882 1.000000
46.140364 5.000000
46.159847 5.000000
46.179329 6.000000
46.198811 5.000000
46.218294 0.000001
46.237776 6.000000
46.257258 3.000000
46.276741 7.000000
46.296223 2.000000
46.315705 6.000000
46.335188 6.000000
46.354670 2.000000
46.374153 3.000000
46.393635 5.000000
46.413117 5.000000
46.432600 4.000000
46.452082 6.000000
46.471564 4.000000
46.491047 2.000000
46.510529 1.000000
46.530012 5.000000
46.549494 5.000000
46.568976 2.000000
46.588459 0.000001
46.607941 1.000000
46.627423 3.000000
46.646906 6.000000
46.666388 1.000000
46.685871 3.000000
46.705353 1.000000
46.724835 2.000000
46.744318 5.000000
46.763800 3.000000
46.783282 3.000000
46.802765 5.000000
46.822247 2.000000
46.841729 4.000000
46.861212 4.000000
46.880694 2.000000
46.900177 3.000000
46.919659 1.000000
46.939141 3.000000
46.958624 6.000000
46.978106 2.000000
46.997588 3.000000
47.017071 3.000000
47.036553 4.000000
47.056036 4.000000
47.075518 2.000000
47.095000 5.000000
47.114483 3.000000
47.133965 1.000000
47.153447 4.000000
47.172930 6.000000
47.192412 1.000000
47.211894 6.000000
47.231377 2.000000
47.250859 6.000000
47.270342 3.000000
47.289824 7.000000
47.309306 1.000000
47.328789 2.000000
47.348271 2.000000
47.367753 2.000000
47.387236 2.000000
47.406718 4.000000
47.426201 4.000000
47.445683 4.000000
47.465165 6.000000
47.484648 2.000000
47.504130 8.000000
47.523612 6.000000
47.543095 4.000000
47.562577 5.000000
47.582059 7.000000
47.601542 2.000000
47.621024 5.000000
47.640507 8.000000
47.659989 1.000000
47.679471 5.000000
47.698954 4.000000
47.718436 6.000000
47.737918 3.000000
47.757401 3.000000
47.776883 5.000000
47.796366 2.000000
47.815848 6.000000
47.835330 2.000000
47.854813 6.000000
47.874295 3.000000
47.893777 3.000000
47.913260 3.000000
47.932742 3.000000
47.952224 2.000000
47.971707 1.000000
47.991189 2.000000
48.010672 3.000000
48.030154 5.000000
48.049636 7.000000
48.069119 2.000000
48.088601 6.000000
48.108083 1.000000
48.127566 2.000000
48.147048 2.000000
48.166531 6.000000
48.186013 4.000000
48.205495 6.000000
48.224978 4.000000
48.244460 1.000000
48.263942 1.000000
48.283425 2.000000
48.302907 1.000000
48.322389 2.000000
48.341872 8.000000
48.361354 6.000000
48.380837 1.000000
48.400319 3.000000
48.419801 1.000000
48.439284 2.000000
48.458766 4.000000
48.478248 1.000000
48.497731 2.000000
48.517213 8.000000
48.536696 1.000000
48.556178 4.000000
48.575660 5.000000
48.595143 7.000000
48.614625 3.000000
48.634107 3.000000
48.653590 4.000000
48.673072 5.000000
48.692555 7.000000
48.712037 7.000000
48.731519 4.000000
48.751002 7.000000
48.770484 1.000000
48.789966 0.000001
48.809449 2.000000
48.828931 4.000000
48.848413 2.000000
48.867896 4.000000
48.887378 5.000000
48.906861 2.000000
48.926343 6.000000
48.945825 3.000000
48.965308 3.000000
48.984790 1.000000
49.004272 4.000000
49.023755 5.000000
49.043237 3.000000
49.062720 5.000000
49.082202 3.000000
49.101684 6.000000
49.121167 3.000000
49.140649 2.000000
49.160131 6.000000
49.179614 6.000000
49.199096 4.000000
49.218578 6.000000
49.238061 8.000000
49.257543 5.000000
49.277026 3.000000
49.296508 10.000000
49.315990 9.000000
49.335473 3.000000
49.354955 6.000000
49.374437 4.000000
49.393920 6.000000
49.413402 1.000000
49.432885 6.000000
49.452367 3.000000
49.471849 4.000000
49.491332 5.000000
49.510814 5.000000
49.530296 4.000000
49.549779 3.000000
49.569261 5.000000
49.588743 4.000000
49.608226 3.000000
49.627708 8.000000
49.647191 2.000000
49.666673 4.000000
49.686155 1.000000
49.705638 3.000000
49.725120 1.000000
49.744602 4.000000
49.764085 4.000000
49.783567 7.000000
49.803050 7.000000
49.822532 7.000000
49.842014 6.000000
49.861497 2.000000
49.880979 4.000000
49.900461 8.000000
49.919944 7.000000
49.939426 5.000000
49.958908 9.000000
49.978391 10.000000
49.997873 15.000000
50.017356 25.000000
50.036838 33.000000
50.056320 82.000000
50.075803 116.000000
50.095285 147.000000
50.114767 154.000000
50.134250 133.000000
50.153732 95.000000
50.173215 64.000000
50.192697 76.000000
50.212179 70.000000
50.231662 82.000000
50.251144 65.000000
50.270626 57.000000
50.290109 41.000000
50.309591 16.000000
50.329074 20.000000
50.348556 15.000000
50.368038 4.000000
50.387521 7.000000
50.407003 4.000000
50.426485 6.000000
50.445968 7.000000
50.465450 4.000000
50.484932 7.000000
50.504415 7.000000
50.523897 5.000000
50.543380 8.000000
50.562862 9.000000
50.582344 11.000000
50.601827 10.000000
50.621309 7.000000
50.640791 11.000000
50.660274 8.000000
50.679756 5.000000
50.699239 6.000000
50.718721 5.000000
50.738203 3.000000
50.757686 8.000000
50.777168 4.000000
50.796650 7.000000
50.816133 8.000000
50.835615 7.000000
50.855097 0.000001
50.874580 3.000000
50.894062 1.000000
50.913545 3.000000
50.933027 6.000000
50.952509 5.000000
50.971992 0.000001
50.991474 2.000000
51.010956 5.000000
51.030439 2.000000
51.049921 6.000000
51.069404 4.000000
51.088886 4.000000
51.108368 3.000000
51.127851 3.000000
51.147333 7.000000
51.166815 4.000000
51.186298 4.000000
51.205780 7.000000
51.225262 4.000000
51.244745 1.000000
51.264227 2.000000
51.283710 4.000000
51.303192 2.000000
51.322674 4.000000
51.342157 1.000000
51.361639 8.000000
51.381121 1.000000
51.400604 5.000000
51.420086 3.000000
51.439569 4.000000
51.459051 3.000000
51.478533 1.000000
51.498016 2.000000
51.517498 3.000000
51.536980 5.000000
51.556463 2.000000
51.575945 1.000000
51.595427 6.000000
51.614910 2.000000
51.634392 3.000000
51.653875 2.000000
51.673357 4.000000
51.692839 4.000000
51.712322 3.000000
51.731804 0.000001
51.751286 0.000001
51.770769 0.000001
51.790251 4.000000
51.809734 3.000000
51.829216 6.000000
51.848698 6.000000
51.868181 10.000000
51.887663 3.000000
51.907145 6.000000
51.926628 2.000000
51.946110 3.000000
51.965593 0.000001
51.985075 1.000000
52.004557 2.000000
52.024040 2.000000
52.043522 1.000000
52.063004 3.000000
52.082487 4.000000
52.101969 2.000000
52.121451 2.000000
52.140934 3.000000
52.160416 4.000000
52.179899 3.000000
52.199381 3.000000
52.218863 1.000000
52.238346 2.000000
52.257828 3.000000
52.277310 4.000000
52.296793 4.000000
52.316275 3.000000
52.335758 2.000000
52.355240 3.000000
52.374722 3.000000
52.394205 5.000000
52.413687 3.000000
52.433169 2.000000
52.452652 1.000000
52.472134 6.000000
52.491616 3.000000
52.511099 5.000000
52.530581 1.000000
52.550064 3.000000
52.569546 3.000000
52.589028 2.000000
52.608511 3.000000
52.627993 4.000000
52.647475 2.000000
52.666958 6.000000
52.686440 6.000000
52.705923 1.000000
52.725405 1.000000
52.744887 3.000000
52.764370 2.000000
52.783852 6.000000
52.803334 3.000000
52.822817 7.000000
52.842299 4.000000
52.861781 2.000000
52.881264 4.000000
52.900746 2.000000
52.920229 3.000000
52.939711 2.000000
52.959193 2.000000
52.978676 3.000000
52.998158 7.000000
53.017640 6.000000
53.037123 6.000000
53.056605 7.000000
53.076088 4.000000
53.095570 1.000000
53.115052 5.000000
53.134535 4.000000
53.154017 5.000000
53.173499 2.000000
53.192982 3.000000
53.212464 4.000000
53.231946 4.000000
53.251429 3.000000
53.270911 2.000000
53.290394 4.000000
53.309876 2.000000
53.329358 4.000000
53.348841 2.000000
53.368323 0.000001
53.387805 0.000001
53.407288 6.000000
53.426770 1.000000
53.446253 5.000000
53.465735 2.000000
53.485217 1.000000
53.504700 3.000000
53.524182 8.000000
53.543664 5.000000
53.563147 2.000000
53.582629 5.000000
53.602112 6.000000
53.621594 2.000000
53.641076 7.000000
53.660559 6.000000
53.680041 3.000000
53.699523 1.000000
53.719006 2.000000
53.738488 2.000000
53.757970 4.000000
53.777453 1.000000
53.796935 5.000000
53.816418 3.000000
53.835900 3.000000
53.855382 1.000000
53.874865 6.000000
53.894347 0.000001
53.913829 1.000000
53.933312 5.000000
53.952794 4.000000
53.972277 2.000000
53.991759 4.000000
54.011241 1.000000
54.030724 1.000000
54.050206 3.000000
54.069688 3.000000
54.089171 7.000000
54.108653 4.000000
54.128135 2.000000
54.147618 4.000000
54.167100 7.000000
54.186583 4.000000
54.206065 5.000000
54.225547 6.000000
54.245030 3.000000
54.264512 2.000000
54.283994 2.000000
54.303477 3.000000
54.322959 4.000000
54.342442 4.000000
54.361924 3.000000
54.381406 4.000000
54.400889 4.000000
54.420371 3.000000
54.439853 6.000000
54.459336 2.000000
54.478818 6.000000
54.498300 4.000000
54.517783 3.000000
54.537265 2.000000
54.556748 4.000000
54.576230 7.000000
54.595712 4.000000
54.615195 4.000000
54.634677 3.000000
54.654159 2.000000
54.673642 6.000000
54.693124 5.000000
54.712607 8.000000
54.732089 7.000000
54.751571 6.000000
54.771054 19.000000
54.790536 24.000000
54.810018 28.000000
54.829501 43.000000
54.848983 57.000000
54.868465 54.000000
54.887948 41.000000
54.907430 27.000000
54.926913 24.000000
54.946395 14.000000
54.965877 28.000000
54.985360 34.000000
55.004842 29.000000
55.024324 22.000000
55.043807 23.000000
55.063289 6.000000
55.082772 2.000000
55.102254 6.000000
55.121736 6.000000
55.141219 4.000000
55.160701 3.000000
55.180183 4.000000
55.199666 9.000000
55.219148 8.000000
55.238630 15.000000
55.258113 18.000000
55.277595 22.000000
55.297078 20.000000
55.316560 20.000000
55.336042 22.000000
55.355525 12.000000
55.375007 7.000000
55.394489 10.000000
55.413972 5.000000
55.433454 9.000000
55.452937 18.000000
55.472419 18.000000
55.491901 6.000000
55.511384 4.000000
55.530866 5.000000
55.550348 3.000000
55.569831 3.000000
55.589313 6.000000
55.608796 1.000000
55.628278 5.000000
55.647760 5.000000
55.667243 5.000000
55.686725 2.000000
55.706207 4.000000
55.725690 5.000000
55.745172 5.000000
55.764654 5.000000
55.784137 5.000000
55.803619 4.000000
55.823102 4.000000
55.842584 4.000000
55.862066 3.000000
55.881549 4.000000
55.901031 3.000000
55.920513 2.000000
55.939996 1.000000
55.959478 2.000000
55.978961 3.000000
55.998443 5.000000
56.017925 1.000000
56.037408 1.000000
56.056890 1.000000
56.076372 4.000000
56.095855 3.000000
56.115337 8.000000
56.134819 6.000000
56.154302 2.000000
56.173784 3.000000
56.193267 5.000000
56.212749 2.000000
56.232231 0.000001
56.251714 0.000001
56.271196 2.000000
56.290678 7.000000
56.310161 4.000000
56.329643 6.000000
56.349126 3.000000
56.368608 3.000000
56.388090 2.000000
56.407573 2.000000
56.427055 5.000000
56.446537 3.000000
56.466020 3.000000
56.485502 3.000000
56.504984 2.000000
56.524467 1.000000
56.543949 0.000001
56.563432 3.000000
56.582914 2.000000
56.602396 1.000000
56.621879 3.000000
56.641361 1.000000
56.660843 3.000000
56.680326 8.000000
56.699808 2.000000
56.719291 3.000000
56.738773 0.000001
56.758255 3.000000
56.777738 7.000000
56.797220 2.000000
56.816702 0.000001
56.836185 2.000000
56.855667 3.000000
56.875149 3.000000
56.894632 0.000001
56.914114 2.000000
56.933597 1.000000
56.953079 7.000000
56.972561 6.000000
56.992044 1.000000
57.011526 3.000000
57.031008 2.000000
57.050491 4.000000
57.069973 2.000000
57.089456 4.000000
57.108938 4.000000
57.128420 1.000000
57.147903 6.000000
57.167385 1.000000
57.186867 1.000000
57.206350 8.000000
57.225832 6.000000
57.245315 5.000000
57.264797 7.000000
57.284279 5.000000
57.303762 4.000000
57.323244 5.000000
57.342726 3.000000
57.362209 4.000000
57.381691 5.000000
57.401173 2.000000
57.420656 2.000000
57.440138 2.000000
57.459621 5.000000
57.479103 7.000000
57.498585 3.000000
57.518068 5.000000
57.537550 2.000000
57.557032 6.000000
57.576515 6.000000
57.595997 4.000000
57.615480 4.000000
57.634962 1.000000
57.654444 2.000000
57.673927 2.000000
57.693409 2.000000
57.712891 2.000000
57.732374 3.000000
57.751856 2.000000
57.771338 0.000001
57.790821 2.000000
57.810303 4.000000
57.829786 4.000000
57.849268 5.000000
57.868750 2.000000
57.888233 3.000000
57.907715 3.000000
57.927197 5.000000
57.946680 3.000000
57.966162 4.000000
57.985645 2.000000
58.005127 2.000000
58.024609 4.000000
58.044092 4.000000
58.063574 1.000000
58.083056 3.000000
58.102539 3.000000
58.122021 2.000000
58.141503 1.000000
58.160986 2.000000
58.180468 2.000000
58.199951 0.000001
58.219433 3.000000
58.238915 4.000000
58.258398 2.000000
58.277880 10.000000
58.297362 5.000000
58.316845 2.000000
58.336327 3.000000
58.355810 3.000000
58.375292 4.000000
58.394774 1.000000
58.414257 0.000001
58.433739 4.000000
58.453221 5.000000
58.472704 7.000000
58.492186 4.000000
58.511668 1.000000
58.531151 3.000000
58.550633 3.000000
58.570116 1.000000
58.589598 3.000000
58.609080 6.000000
58.628563 3.000000
58.648045 5.000000
58.667527 4.000000
58.687010 7.000000
58.706492 8.000000
58.725975 0.000001
58.745457 4.000000
58.764939 4.000000
58.784422 7.000000
58.803904 3.000000
58.823386 3.000000
58.842869 2.000000
58.862351 5.000000
58.881834 3.000000
58.901316 4.000000
58.920798 6.000000
58.940281 3.000000
58.959763 0.000001
58.979245 2.000000
58.998728 1.000000
59.018210 4.000000
59.037692 4.000000
59.057175 2.000000
59.076657 3.000000
59.096140 2.000000
59.115622 2.000000
59.135104 2.000000
59.154587 2.000000
59.174069 5.000000
59.193551 4.000000
59.213034 3.000000
59.232516 2.000000
59.251999 0.000001
59.271481 10.000000
59.290963 4.000000
59.310446 8.000000
59.329928 2.000000
59.349410 3.000000
59.368893 1.000000
59.388375 3.000000
59.407857 5.000000
59.427340 2.000000
59.446822 3.000000
59.466305 2.000000
59.485787 9.000000
59.505269 3.000000
59.524752 6.000000
59.544234 3.000000
59.563716 6.000000
59.583199 3.000000
59.602681 2.000000
59.622164 6.000000
59.641646 4.000000
59.661128 6.000000
59.680611 8.000000
59.700093 5.000000
59.719575 7.000000
59.739058 11.000000
59.758540 8.000000
59.778022 12.000000
59.797505 12.000000
59.816987 18.000000
59.836470 29.000000
59.855952 43.000000
59.875434 62.000000
59.894917 88.000000
59.914399 124.000000
59.933881 126.000000
59.953364 119.000000
59.972846 87.000000
59.992329 67.000000
60.011811 45.000000
60.031293 40.000000
60.050776 57.000000
60.070258 57.000000
60.089740 65.000000
60.109223 86.000000
60.128705 46.000000
60.148187 41.000000
60.167670 20.000000
60.187152 17.000000
60.206635 12.000000
60.226117 10.000000
60.245599 8.000000
60.265082 10.000000
60.284564 2.000000
60.304046 5.000000
60.323529 6.000000
60.343011 3.000000
60.362494 6.000000
60.381976 3.000000
60.401458 5.000000
60.420941 2.000000
60.440423 7.000000
60.459905 6.000000
60.479388 7.000000
60.498870 4.000000
60.518352 6.000000
60.537835 5.000000
60.557317 3.000000
60.576800 5.000000
60.596282 5.000000
60.615764 5.000000
60.635247 5.000000
60.654729 4.000000
60.674211 5.000000
60.693694 1.000000
60.713176 6.000000
60.732659 6.000000
60.752141 2.000000
60.771623 6.000000
60.791106 3.000000
60.810588 4.000000
60.830070 1.000000
60.849553 5.000000
60.869035 6.000000
60.888518 3.000000
60.908000 7.000000
60.927482 5.000000
60.946965 4.000000
60.966447 1.000000
60.985929 2.000000
61.005412 2.000000
61.024894 4.000000
61.044376 5.000000
61.063859 4.000000
61.083341 1.000000
61.102824 3.000000
61.122306 5.000000
61.141788 3.000000
61.161271 0.000001
61.180753 6.000000
61.200235 0.000001
61.219718 2.000000
61.239200 2.000000
61.258683 3.000000
61.278165 1.000000
61.297647 3.000000
61.317130 3.000000
61.336612 7.000000
61.356094 4.000000
61.375577 1.000000
61.395059 2.000000
61.414541 1.000000
61.434024 1.000000
61.453506 4.000000
61.472989 3.000000
61.492471 5.000000
61.511953 2.000000
61.531436 4.000000
61.550918 2.000000
61.570400 3.000000
61.589883 0.000001
61.609365 4.000000
61.628848 0.000001
61.648330 3.000000
61.667812 3.000000
61.687295 1.000000
61.706777 2.000000
61.726259 4.000000
61.745742 3.000000
61.765224 3.000000
61.784706 3.000000
61.804189 1.000000
61.823671 0.000001
61.843154 0.000001
61.862636 1.000000
61.882118 0.000001
61.901601 3.000000
61.921083 10.000000
61.940565 4.000000
61.960048 4.000000
61.979530 3.000000
61.999013 2.000000
62.018495 5.000000
62.037977 2.000000
62.057460 1.000000
62.076942 0.000001
62.096424 5.000000
62.115907 1.000000
62.135389 1.000000
62.154871 4.000000
62.174354 2.000000
62.193836 3.000000
62.213319 5.000000
62.232801 3.000000
62.252283 4.000000
62.271766 1.000000
62.291248 1.000000
62.310730 5.000000
62.330213 2.000000
62.349695 2.000000
62.369178 3.000000
62.388660 1.000000
62.408142 0.000001
62.427625 1.000000
62.447107 0.000001
62.466589 3.000000
62.486072 3.000000
62.505554 4.000000
62.525037 4.000000
62.544519 6.000000
62.564001 2.000000
62.583484 3.000000
62.602966 1.000000
62.622448 7.000000
62.641931 3.000000
62.661413 4.000000
62.680895 3.000000
62.700378 3.000000
62.719860 5.000000
62.739343 4.000000
62.758825 3.000000
62.778307 3.000000
62.797790 5.000000
62.817272 7.000000
62.836754 3.000000
62.856237 4.000000
62.875719 3.000000
62.895202 4.000000
62.914684 2.000000
62.934166 4.000000
62.953649 3.000000
62.973131 5.000000
62.992613 2.000000
63.012096 5.000000
63.031578 3.000000
63.051060 3.000000
63.070543 3.000000
63.090025 1.000000
63.109508 3.000000
63.128990 3.000000
63.148472 7.000000
63.167955 2.000000
63.187437 1.000000
63.206919 2.000000
63.226402 3.000000
63.245884 2.000000
63.265367 5.000000
63.284849 1.000000
63.304331 4.000000
63.323814 2.000000
63.343296 2.000000
63.362778 2.000000
63.382261 1.000000
63.401743 2.000000
63.421225 5.000000
63.440708 7.000000
63.460190 3.000000
63.479673 2.000000
63.499155 4.000000
63.518637 5.000000
63.538120 4.000000
63.557602 1.000000
63.577084 5.000000
63.596567 3.000000
63.616049 5.000000
63.635532 2.000000
63.655014 5.000000
63.674496 3.000000
63.693979 1.000000
63.713461 4.000000
63.732943 3.000000
63.752426 1.000000
63.771908 4.000000
63.791390 3.000000
63.810873 1.000000
63.830355 5.000000
63.849838 3.000000
63.869320 6.000000
63.888802 8.000000
63.908285 5.000000
63.927767 7.000000
63.947249 13.000000
63.966732 20.000000
63.986214 14.000000
64.005697 24.000000
64.025179 18.000000
64.044661 14.000000
64.064144 11.000000
64.083626 10.000000
64.103108 3.000000
64.122591 11.000000
64.142073 7.000000
64.161556 10.000000
64.181038 11.000000
64.200520 13.000000
64.220003 12.000000
64.239485 5.000000
64.258967 3.000000
64.278450 2.000000
64.297932 6.000000
64.317414 5.000000
64.336897 2.000000
64.356379 0.000001
64.375862 4.000000
64.395344 4.000000
64.414826 3.000000
64.434309 1.000000
64.453791 3.000000
64.473273 2.000000
64.492756 1.000000
64.512238 4.000000
64.531721 3.000000
64.551203 5.000000
64.570685 3.000000
64.590168 3.000000
64.609650 5.000000
64.629132 2.000000
64.648615 4.000000
64.668097 6.000000
64.687579 3.000000
64.707062 6.000000
64.726544 4.000000
64.746027 2.000000
64.765509 4.000000
64.784991 4.000000
64.804474 5.000000
64.823956 1.000000
64.843438 2.000000
64.862921 1.000000
64.882403 2.000000
64.901886 4.000000
64.921368 0.000001
64.940850 1.000000
64.960333 3.000000
64.979815 2.000000
64.999297 1.000000
65.018780 0.000001
65.038262 2.000000
65.057744 4.000000
65.077227 6.000000
65.096709 1.000000
65.116192 4.000000
65.135674 4.000000
65.155156 1.000000
65.174639 2.000000
65.194121 3.000000
65.213603 2.000000
65.233086 5.000000
65.252568 8.000000
65.272051 5.000000
65.291533 3.000000
65.311015 4.000000
65.330498 5.000000
65.349980 4.000000
65.369462 4.000000
65.388945 4.000000
65.408427 1.000000
65.427909 4.000000
65.447392 3.000000
65.466874 4.000000
65.486357 1.000000
65.505839 5.000000
65.525321 3.000000
65.544804 6.000000
65.564286 2.000000
65.583768 5.000000
65.603251 2.000000
65.622733 4.000000
65.642216 1.000000
65.661698 4.000000
65.681180 4.000000
65.700663 8.000000
65.720145 13.000000
65.739627 12.000000
65.759110 16.000000
65.778592 16.000000
65.798075 14.000000
65.817557 12.000000
65.837039 10.000000
65.856522 10.000000
65.876004 6.000000
65.895486 4.000000
65.914969 7.000000
65.934451 6.000000
65.953933 9.000000
65.973416 11.000000
65.992898 8.000000
66.012381 7.000000
66.031863 7.000000
66.051345 4.000000
66.070828 2.000000
66.090310 4.000000
66.109792 1.000000
66.129275 5.000000
66.148757 2.000000
66.168240 3.000000
66.187722 3.000000
66.207204 4.000000
66.226687 4.000000
66.246169 1.000000
66.265651 2.000000
66.285134 6.000000
66.304616 4.000000
66.324098 2.000000
66.343581 4.000000
66.363063 2.000000
66.382546 3.000000
66.402028 7.000000
66.421510 3.000000
66.440993 2.000000
66.460475 3.000000
66.479957 2.000000
66.499440 4.000000
66.518922 1.000000
66.538405 3.000000
66.557887 4.000000
66.577369 1.000000
66.596852 4.000000
66.616334 4.000000
66.635816 1.000000
66.655299 0.000001
66.674781 2.000000
66.694263 1.000000
66.713746 5.000000
66.733228 2.000000
66.752711 4.000000
66.772193 2.000000
66.791675 3.000000
66.811158 5.000000
66.830640 1.000000
66.850122 2.000000
66.869605 7.000000
66.889087 3.000000
66.908570 2.000000
66.928052 2.000000
66.947534 5.000000
66.967017 1.000000
66.986499 4.000000
67.005981 2.000000
67.025464 4.000000
67.044946 7.000000
67.064428 3.000000
67.083911 1.000000
67.103393 5.000000
67.122876 3.000000
67.142358 2.000000
67.161840 3.000000
67.181323 2.000000
67.200805 2.000000
67.220287 2.000000
67.239770 3.000000
67.259252 10.000000
67.278735 7.000000
67.298217 1.000000
67.317699 2.000000
67.337182 4.000000
67.356664 5.000000
67.376146 4.000000
67.395629 3.000000
67.415111 3.000000
67.434593 3.000000
67.454076 8.000000
67.473558 8.000000
67.493041 6.000000
67.512523 8.000000
67.532005 5.000000
67.551488 5.000000
67.570970 7.000000
67.590452 15.000000
67.609935 18.000000
67.629417 24.000000
67.648900 30.000000
67.668382 41.000000
67.687864 57.000000
67.707347 66.000000
67.726829 81.000000
67.746311 74.000000
67.765794 43.000000
67.785276 32.000000
67.804759 29.000000
67.824241 29.000000
67.843723 34.000000
67.863206 27.000000
67.882688 35.000000
67.902170 42.000000
67.921653 47.000000
67.941135 32.000000
67.960617 25.000000
67.980100 19.000000
67.999582 20.000000
68.019065 21.000000
68.038547 19.000000
68.058029 30.000000
68.077512 51.000000
68.096994 70.000000
68.116476 79.000000
68.135959 50.000000
68.155441 42.000000
68.174924 26.000000
68.194406 32.000000
68.213888 25.000000
68.233371 40.000000
68.252853 62.000000
68.272335 65.000000
68.291818 71.000000
68.311300 78.000000
68.330782 54.000000
68.350265 45.000000
68.369747 34.000000
68.389230 17.000000
68.408712 23.000000
68.428194 24.000000
68.447677 21.000000
68.467159 21.000000
68.486641 29.000000
68.506124 24.000000
68.525606 20.000000
68.545089 15.000000
68.564571 6.000000
68.584053 6.000000
68.603536 4.000000
68.623018 3.000000
68.642500 5.000000
68.661983 3.000000
68.681465 6.000000
68.700947 8.000000
68.720430 6.000000
68.739912 2.000000
68.759395 2.000000
68.778877 2.000000
68.798359 2.000000
68.817842 5.000000
68.837324 5.000000
68.856806 3.000000
68.876289 2.000000
68.895771 3.000000
68.915254 3.000000
68.934736 4.000000
68.954218 3.000000
68.973701 6.000000
68.993183 5.000000
69.012665 5.000000
69.032148 3.000000
69.051630 3.000000
69.071112 7.000000
69.090595 0.000001
69.110077 2.000000
69.129560 3.000000
69.149042 5.000000
69.168524 3.000000
69.188007 5.000000
69.207489 6.000000
69.226971 3.000000
69.246454 4.000000
69.265936 3.000000
69.285419 1.000000
69.304901 4.000000
69.324383 3.000000
69.343866 2.000000
69.363348 7.000000
69.382830 1.000000
69.402313 4.000000
69.421795 3.000000
69.441278 2.000000
69.460760 5.000000
69.480242 4.000000
69.499725 1.000000
69.519207 6.000000
69.538689 1.000000
69.558172 4.000000
69.577654 7.000000
69.597136 2.000000
69.616619 0.000001
69.636101 6.000000
69.655584 4.000000
69.675066 4.000000
69.694548 0.000001
69.714031 3.000000
69.733513 3.000000
69.752995 6.000000
69.772478 3.000000
69.791960 4.000000
69.811443 6.000000
69.830925 3.000000
69.850407 7.000000
69.869890 4.000000
69.889372 2.000000
69.908854 0.000001
69.928337 2.000000
69.947819 4.000000
69.967301 3.000000
69.986784 2.000000
70.006266 5.000000
70.025749 5.000000
