4.000000 2510.000000
4.019482 2475.000000
4.038965 2366.000000
4.058447 2335.000000
4.077929 2288.000000
4.097412 2266.000000
4.116894 2237.000000
4.136377 2217.000000
4.155859 2166.000000
4.175341 2069.000000
4.194824 2076.000000
4.214306 2040.000000
4.233788 2037.000000
4.253271 2082.000000
4.272753 1962.000000
4.292236 1974.000000
4.311718 1936.000000
4.331200 1896.000000
4.350683 1866.000000
4.370165 1815.000000
4.389647 1748.000000
4.409130 1773.000000
4.428612 1734.000000
4.448094 1739.000000
4.467577 1799.000000
4.487059 1718.000000
4.506542 1675.000000
4.526024 1665.000000
4.545506 1638.000000
4.564989 1622.000000
4.584471 1583.000000
4.603953 1503.000000
4.623436 1627.000000
4.642918 1554.000000
4.662401 1516.000000
4.681883 1508.000000
4.701365 1430.000000
4.720848 1442.000000
4.740330 1422.000000
4.759812 1452.000000
4.779295 1346.000000
4.798777 1391.000000
4.818259 1413.000000
4.837742 1400.000000
4.857224 1346.000000
4.876707 1376.000000
4.896189 1364.000000
4.915671 1244.000000
4.935154 1297.000000
4.954636 1287.000000
4.974118 1266.000000
4.993601 1233.000000
5.013083 1203.000000
5.032566 1257.000000
5.052048 1202.000000
5.071530 1252.000000
5.091013 1218.000000
5.110495 1199.000000
5.129977 1289.000000
5.149460 1185.000000
5.168942 1171.000000
5.188425 1194.000000
5.207907 1161.000000
5.227389 1125.000000
5.246872 1107.000000
5.266354 1139.000000
5.285836 1085.000000
5.305319 1086.000000
5.324801 1056.000000
5.344283 1068.000000
5.363766 1133.000000
5.383248 1068.000000
5.402731 1118.000000
5.422213 1063.000000
5.441695 1034.000000
5.461178 1019.000000
5.480660 1066.000000
5.500142 1017.000000
5.519625 1029.000000
5.539107 1029.000000
5.558590 1025.000000
5.578072 1020.000000
5.597554 993.000000
5.617037 1032.000000
5.636519 1015.000000
5.656001 959.000000
5.675484 966.000000
5.694966 991.000000
5.714448 977.000000
5.733931 940.000000
5.753413 891.000000
5.772896 913.000000
5.792378 1009.000000
5.811860 880.000000
5.831343 923.000000
5.850825 916.000000
5.870307 935.000000
5.889790 884.000000
5.909272 914.000000
5.928755 838.000000
5.948237 894.000000
5.967719 854.000000
5.987202 843.000000
6.006684 903.000000
6.026166 836.000000
6.045649 832.000000
6.065131 823.000000
6.084613 832.000000
6.104096 837.000000
6.123578 865.000000
6.143061 845.000000
6.162543 850.000000
6.182025 770.000000
6.201508 829.000000
6.220990 756.000000
6.240472 759.000000
6.259955 812.000000
6.279437 751.000000
6.298920 788.000000
6.318402 739.000000
6.337884 790.000000
6.357367 775.000000
6.376849 796.000000
6.396331 791.000000
6.415814 722.000000
6.435296 765.000000
6.454778 727.000000
6.474261 763.000000
6.493743 732.000000
6.513226 758.000000
6.532708 708.000000
6.552190 733.000000
6.571673 748.000000
6.591155 717.000000
6.610637 688.000000
6.630120 708.000000
6.649602 707.000000
6.669085 706.000000
6.688567 671.000000
6.708049 736.000000
6.727532 678.000000
6.747014 665.000000
6.766496 660.000000
6.785979 670.000000
6.805461 689.000000
6.824944 662.000000
6.844426 668.000000
6.863908 692.000000
6.883391 660.000000
6.902873 630.000000
6.922355 648.000000
6.941838 665.000000
6.961320 634.000000
6.980802 645.000000
7.000285 635.000000
7.019767 625.000000
7.039250 665.000000
7.058732 567.000000
7.078214 661.000000
7.097697 665.000000
7.117179 609.000000
7.136661 596.000000
7.156144 590.000000
7.175626 621.000000
7.195109 586.000000
7.214591 606.000000
7.234073 628.000000
7.253556 644.000000
7.273038 594.000000
7.292520 616.000000
7.312003 579.000000
7.331485 606.000000
7.350967 628.000000
7.370450 557.000000
7.389932 596.000000
7.409415 569.000000
7.428897 590.000000
7.448379 557.000000
7.467862 570.000000
7.487344 579.000000
7.506826 543.000000
7.526309 545.000000
7.545791 559.000000
7.565274 609.000000
7.584756 567.000000
7.604238 582.000000
7.623721 550.000000
7.643203 555.000000
7.662685 556.000000
7.682168 542.000000
7.701650 542.000000
7.721132 574.000000
7.740615 527.000000
7.760097 543.000000
7.779580 531.000000
7.799062 563.000000
7.818544 557.000000
7.838027 517.000000
7.857509 511.000000
7.876991 525.000000
7.896474 555.000000
7.915956 513.000000
7.935439 536.000000
7.954921 535.000000
7.974403 537.000000
7.993886 513.000000
8.013368 522.000000
8.032850 516.000000
8.052333 532.000000
8.071815 528.000000
8.091297 540.000000
8.110780 545.000000
8.130262 523.000000
8.149745 515.000000
8.169227 538.000000
8.188709 518.000000
8.208192 557.000000
8.227674 526.000000
8.247156 502.000000
8.266639 548.000000
8.286121 524.000000
8.305604 554.000000
8.325086 536.000000
8.344568 507.000000
8.364051 515.000000
8.383533 496.000000
8.403015 502.000000
8.422498 496.000000
8.441980 548.000000
8.461463 507.000000
8.480945 540.000000
8.500427 496.000000
8.519910 496.000000
8.539392 517.000000
8.558874 537.000000
8.578357 520.000000
8.597839 568.000000
8.617321 512.000000
8.636804 553.000000
8.656286 507.000000
8.675769 512.000000
8.695251 512.000000
8.714733 506.000000
8.734216 528.000000
8.753698 509.000000
8.773180 491.000000
8.792663 486.000000
8.812145 443.000000
8.831628 520.000000
8.851110 515.000000
8.870592 502.000000
8.890075 499.000000
8.909557 536.000000
8.929039 521.000000
8.948522 497.000000
8.968004 473.000000
8.987486 503.000000
9.006969 560.000000
9.026451 492.000000
9.045934 507.000000
9.065416 500.000000
9.084898 499.000000
9.104381 473.000000
9.123863 447.000000
9.143345 488.000000
9.162828 521.000000
9.182310 508.000000
9.201793 477.000000
9.221275 471.000000
9.240757 503.000000
9.260240 525.000000
9.279722 469.000000
9.299204 470.000000
9.318687 461.000000
9.338169 514.000000
9.357651 522.000000
9.377134 480.000000
9.396616 483.000000
9.416099 505.000000
9.435581 463.000000
9.455063 488.000000
9.474546 470.000000
9.494028 487.000000
9.513510 508.000000
9.532993 467.000000
9.552475 487.000000
9.571958 477.000000
9.591440 431.000000
9.610922 491.000000
9.630405 533.000000
9.649887 469.000000
9.669369 484.000000
9.688852 533.000000
9.708334 498.000000
9.727816 473.000000
9.747299 497.000000
9.766781 487.000000
9.786264 514.000000
9.805746 496.000000
9.825228 481.000000
9.844711 463.000000
9.864193 491.000000
9.883675 479.000000
9.903158 488.000000
9.922640 464.000000
9.942123 509.000000
9.961605 496.000000
9.981087 508.000000
10.000570 463.000000
10.020052 470.000000
10.039534 451.000000
10.059017 491.000000
10.078499 459.000000
10.097982 460.000000
10.117464 458.000000
10.136946 470.000000
10.156429 481.000000
10.175911 459.000000
10.195393 475.000000
10.214876 442.000000
10.234358 502.000000
10.253840 497.000000
10.273323 446.000000
10.292805 458.000000
10.312288 507.000000
10.331770 436.000000
10.351252 506.000000
10.370735 509.000000
10.390217 450.000000
10.409699 467.000000
10.429182 457.000000
10.448664 484.000000
10.468147 469.000000
10.487629 471.000000
10.507111 477.000000
10.526594 425.000000
10.546076 472.000000
10.565558 488.000000
10.585041 490.000000
10.604523 443.000000
10.624005 511.000000
10.643488 448.000000
10.662970 442.000000
10.682453 452.000000
10.701935 480.000000
10.721417 441.000000
10.740900 465.000000
10.760382 474.000000
10.779864 463.000000
10.799347 473.000000
10.818829 443.000000
10.838312 475.000000
10.857794 472.000000
10.877276 473.000000
10.896759 480.000000
10.916241 450.000000
10.935723 463.000000
10.955206 474.000000
10.974688 413.000000
10.994170 461.000000
11.013653 485.000000
11.033135 502.000000
11.052618 444.000000
11.072100 469.000000
11.091582 447.000000
11.111065 469.000000
11.130547 433.000000
11.150029 475.000000
11.169512 477.000000
11.188994 440.000000
11.208477 436.000000
11.227959 439.000000
11.247441 445.000000
11.266924 447.000000
11.286406 411.000000
11.305888 449.000000
11.325371 447.000000
11.344853 481.000000
11.364335 460.000000
11.383818 447.000000
11.403300 424.000000
11.422783 434.000000
11.442265 450.000000
11.461747 432.000000
11.481230 439.000000
11.500712 476.000000
11.520194 432.000000
11.539677 452.000000
11.559159 447.000000
11.578642 452.000000
11.598124 460.000000
11.617606 450.000000
11.637089 451.000000
11.656571 409.000000
11.676053 409.000000
11.695536 457.000000
11.715018 433.000000
11.734500 430.000000
11.753983 401.000000
11.773465 412.000000
11.792948 433.000000
11.812430 428.000000
11.831912 442.000000
11.851395 448.000000
11.870877 445.000000
11.890359 444.000000
11.909842 420.000000
11.929324 449.000000
11.948807 462.000000
11.968289 478.000000
11.987771 421.000000
12.007254 440.000000
12.026736 428.000000
12.046218 412.000000
12.065701 433.000000
12.085183 427.000000
12.104666 420.000000
12.124148 448.000000
12.143630 428.000000
12.163113 442.000000
12.182595 414.000000
12.202077 427.000000
12.221560 441.000000
12.241042 432.000000
12.260524 429.000000
12.280007 470.000000
12.299489 438.000000
12.318972 415.000000
12.338454 413.000000
12.357936 429.000000
12.377419 418.000000
12.396901 400.000000
12.416383 444.000000
12.435866 431.000000
12.455348 425.000000
12.474831 426.000000
12.494313 370.000000
12.513795 438.000000
12.533278 438.000000
12.552760 424.000000
12.572242 431.000000
12.591725 419.000000
12.611207 403.000000
12.630689 426.000000
12.650172 382.000000
12.669654 450.000000
12.689137 437.000000
12.708619 447.000000
12.728101 400.000000
12.747584 408.000000
12.767066 426.000000
12.786548 412.000000
12.806031 405.000000
12.825513 398.000000
12.844996 426.000000
12.864478 417.000000
12.883960 409.000000
12.903443 402.000000
12.922925 439.000000
12.942407 412.000000
12.961890 414.000000
12.981372 382.000000
13.000854 405.000000
13.020337 416.000000
13.039819 429.000000
13.059302 406.000000
13.078784 390.000000
13.098266 436.000000
13.117749 412.000000
13.137231 451.000000
13.156713 429.000000
13.176196 374.000000
13.195678 392.000000
13.215161 414.000000
13.234643 403.000000
13.254125 425.000000
13.273608 422.000000
13.293090 418.000000
13.312572 379.000000
13.332055 405.000000
13.351537 361.000000
13.371019 404.000000
13.390502 408.000000
13.409984 381.000000
13.429467 429.000000
13.448949 392.000000
13.468431 409.000000
13.487914 387.000000
13.507396 415.000000
13.526878 423.000000
13.546361 403.000000
13.565843 355.000000
13.585326 395.000000
13.604808 365.000000
13.624290 433.000000
13.643773 393.000000
13.663255 404.000000
13.682737 385.000000
13.702220 398.000000
13.721702 388.000000
13.741185 384.000000
13.760667 405.000000
13.780149 398.000000
13.799632 381.000000
13.819114 389.000000
13.838596 410.000000
13.858079 429.000000
13.877561 390.000000
13.897043 417.000000
13.916526 345.000000
13.936008 426.000000
13.955491 401.000000
13.974973 371.000000
13.994455 407.000000
14.013938 384.000000
14.033420 366.000000
14.052902 348.000000
14.072385 389.000000
14.091867 368.000000
14.111350 362.000000
14.130832 391.000000
14.150314 386.000000
14.169797 345.000000
14.189279 362.000000
14.208761 394.000000
14.228244 366.000000
14.247726 401.000000
14.267208 400.000000
14.286691 372.000000
14.306173 393.000000
14.325656 363.000000
14.345138 357.000000
14.364620 348.000000
14.384103 345.000000
14.403585 350.000000
14.423067 324.000000
14.442550 355.000000
14.462032 380.000000
14.481515 368.000000
14.500997 372.000000
14.520479 395.000000
14.539962 360.000000
14.559444 349.000000
14.578926 352.000000
14.598409 361.000000
14.617891 363.000000
14.637373 381.000000
14.656856 405.000000
14.676338 368.000000
14.695821 386.000000
14.715303 352.000000
14.734785 371.000000
14.754268 353.000000
14.773750 333.000000
14.793232 343.000000
14.812715 365.000000
14.832197 348.000000
14.851680 380.000000
14.871162 372.000000
14.890644 350.000000
14.910127 345.000000
14.929609 358.000000
14.949091 370.000000
14.968574 378.000000
14.988056 355.000000
15.007538 372.000000
15.027021 336.000000
15.046503 343.000000
15.065986 340.000000
15.085468 376.000000
15.104950 342.000000
15.124433 341.000000
15.143915 349.000000
15.163397 370.000000
15.182880 368.000000
15.202362 347.000000
15.221845 326.000000
15.241327 363.000000
15.260809 345.000000
15.280292 330.000000
15.299774 343.000000
15.319256 341.000000
15.338739 366.000000
15.358221 356.000000
15.377704 329.000000
15.397186 400.000000
15.416668 383.000000
15.436151 343.000000
15.455633 387.000000
15.475115 323.000000
15.494598 328.000000
15.514080 333.000000
15.533562 322.000000
15.553045 348.000000
15.572527 353.000000
15.592010 340.000000
15.611492 344.000000
15.630974 320.000000
15.650457 326.000000
15.669939 337.000000
15.689421 335.000000
15.708904 338.000000
15.728386 339.000000
15.747869 286.000000
15.767351 334.000000
15.786833 331.000000
15.806316 338.000000
15.825798 305.000000
15.845280 334.000000
15.864763 332.000000
15.884245 321.000000
15.903727 332.000000
15.923210 355.000000
15.942692 334.000000
15.962175 334.000000
15.981657 350.000000
16.001139 325.000000
16.020622 318.000000
16.040104 286.000000
16.059586 292.000000
16.079069 272.000000
16.098551 328.000000
16.118034 314.000000
16.137516 302.000000
16.156998 320.000000
16.176481 350.000000
16.195963 328.000000
16.215445 336.000000
16.234928 291.000000
16.254410 331.000000
16.273892 307.000000
16.293375 325.000000
16.312857 344.000000
16.332340 313.000000
16.351822 308.000000
16.371304 305.000000
16.390787 316.000000
16.410269 309.000000
16.429751 305.000000
16.449234 321.000000
16.468716 292.000000
16.488199 302.000000
16.507681 317.000000
16.527163 325.000000
16.546646 316.000000
16.566128 273.000000
16.585610 322.000000
16.605093 291.000000
16.624575 273.000000
16.644057 290.000000
16.663540 297.000000
16.683022 296.000000
16.702505 268.000000
16.721987 272.000000
16.741469 304.000000
16.760952 317.000000
16.780434 331.000000
16.799916 296.000000
16.819399 304.000000
16.838881 302.000000
16.858364 308.000000
16.877846 319.000000
16.897328 283.000000
16.916811 306.000000
16.936293 281.000000
16.955775 283.000000
16.975258 262.000000
16.994740 287.000000
17.014222 301.000000
17.033705 289.000000
17.053187 306.000000
17.072670 310.000000
17.092152 273.000000
17.111634 311.000000
17.131117 305.000000
17.150599 295.000000
17.170081 285.000000
17.189564 294.000000
17.209046 276.000000
17.228529 296.000000
17.248011 334.000000
17.267493 310.000000
17.286976 336.000000
17.306458 280.000000
17.325940 271.000000
17.345423 290.000000
17.364905 287.000000
17.384388 255.000000
17.403870 271.000000
17.423352 308.000000
17.442835 273.000000
17.462317 294.000000
17.481799 250.000000
17.501282 264.000000
17.520764 294.000000
17.540246 273.000000
17.559729 310.000000
17.579211 302.000000
17.598694 310.000000
17.618176 302.000000
17.637658 281.000000
17.657141 287.000000
17.676623 269.000000
17.696105 261.000000
17.715588 278.000000
17.735070 290.000000
17.754553 284.000000
17.774035 289.000000
17.793517 294.000000
17.813000 290.000000
17.832482 286.000000
17.851964 300.000000
17.871447 271.000000
17.890929 268.000000
17.910411 279.000000
17.929894 268.000000
17.949376 294.000000
17.968859 279.000000
17.988341 278.000000
18.007823 283.000000
18.027306 265.000000
18.046788 276.000000
18.066270 286.000000
18.085753 266.000000
18.105235 275.000000
18.124718 264.000000
18.144200 274.000000
18.163682 282.000000
18.183165 253.000000
18.202647 231.000000
18.222129 268.000000
18.241612 259.000000
18.261094 298.000000
18.280576 291.000000
18.300059 249.000000
18.319541 242.000000
18.339024 249.000000
18.358506 256.000000
18.377988 271.000000
18.397471 270.000000
18.416953 246.000000
18.436435 273.000000
18.455918 239.000000
18.475400 235.000000
18.494883 269.000000
18.514365 263.000000
18.533847 273.000000
18.553330 255.000000
18.572812 268.000000
18.592294 266.000000
18.611777 254.000000
18.631259 266.000000
18.650741 250.000000
18.670224 266.000000
18.689706 251.000000
18.709189 226.000000
18.728671 251.000000
18.748153 275.000000
18.767636 254.000000
18.787118 265.000000
18.806600 252.000000
18.826083 245.000000
18.845565 262.000000
18.865048 245.000000
18.884530 257.000000
18.904012 246.000000
18.923495 204.000000
18.942977 251.000000
18.962459 246.000000
18.981942 253.000000
19.001424 247.000000
19.020907 271.000000
19.040389 249.000000
19.059871 231.000000
19.079354 243.000000
19.098836 239.000000
19.118318 280.000000
19.137801 240.000000
19.157283 240.000000
19.176765 284.000000
19.196248 207.000000
19.215730 276.000000
19.235213 273.000000
19.254695 256.000000
19.274177 257.000000
19.293660 246.000000
19.313142 243.000000
19.332624 268.000000
19.352107 269.000000
19.371589 225.000000
19.391072 254.000000
19.410554 254.000000
19.430036 247.000000
19.449519 234.000000
19.469001 237.000000
19.488483 241.000000
19.507966 240.000000
19.527448 238.000000
19.546930 253.000000
19.566413 243.000000
19.585895 253.000000
19.605378 241.000000
19.624860 247.000000
19.644342 231.000000
19.663825 249.000000
19.683307 228.000000
19.702789 275.000000
19.722272 267.000000
19.741754 266.000000
19.761237 231.000000
19.780719 245.000000
19.800201 231.000000
19.819684 227.000000
19.839166 233.000000
19.858648 214.000000
19.878131 216.000000
19.897613 221.000000
19.917095 266.000000
19.936578 220.000000
19.956060 218.000000
19.975543 236.000000
19.995025 240.000000
20.014507 224.000000
20.033990 234.000000
20.053472 228.000000
20.072954 217.000000
20.092437 226.000000
20.111919 225.000000
20.131402 227.000000
20.150884 236.000000
20.170366 220.000000
20.189849 232.000000
20.209331 236.000000
20.228813 236.000000
20.248296 235.000000
20.267778 228.000000
20.287260 239.000000
20.306743 241.000000
20.326225 237.000000
20.345708 233.000000
20.365190 239.000000
20.384672 238.000000
20.404155 216.000000
20.423637 259.000000
20.443119 222.000000
20.462602 221.000000
20.482084 243.000000
20.501567 237.000000
20.521049 211.000000
20.540531 236.000000
20.560014 215.000000
20.579496 248.000000
20.598978 233.000000
20.618461 215.000000
20.637943 224.000000
20.657426 235.000000
20.676908 232.000000
20.696390 214.000000
20.715873 219.000000
20.735355 259.000000
20.754837 239.000000
20.774320 214.000000
20.793802 234.000000
20.813284 227.000000
20.832767 246.000000
20.852249 280.000000
20.871732 233.000000
20.891214 233.000000
20.910696 197.000000
20.930179 249.000000
20.949661 221.000000
20.969143 237.000000
20.988626 207.000000
21.008108 212.000000
21.027591 209.000000
21.047073 244.000000
21.066555 209.000000
21.086038 232.000000
21.105520 225.000000
21.125002 226.000000
21.144485 206.000000
21.163967 231.000000
21.183449 228.000000
21.202932 204.000000
21.222414 191.000000
21.241897 213.000000
21.261379 212.000000
21.280861 236.000000
21.300344 206.000000
21.319826 206.000000
21.339308 204.000000
21.358791 221.000000
21.378273 216.000000
21.397756 233.000000
21.417238 233.000000
21.436720 197.000000
21.456203 212.000000
21.475685 209.000000
21.495167 215.000000
21.514650 229.000000
21.534132 222.000000
21.553614 205.000000
21.573097 201.000000
21.592579 187.000000
21.612062 198.000000
21.631544 219.000000
21.651026 221.000000
21.670509 198.000000
21.689991 200.000000
21.709473 185.000000
21.728956 250.000000
21.748438 179.000000
21.767921 189.000000
21.787403 232.000000
21.806885 200.000000
21.826368 186.000000
21.845850 211.000000
21.865332 234.000000
21.884815 210.000000
21.904297 189.000000
21.923779 216.000000
21.943262 218.000000
21.962744 222.000000
21.982227 211.000000
22.001709 193.000000
22.021191 227.000000
22.040674 219.000000
22.060156 213.000000
22.079638 191.000000
22.099121 187.000000
22.118603 196.000000
22.138086 205.000000
22.157568 208.000000
22.177050 223.000000
22.196533 189.000000
22.216015 180.000000
22.235497 183.000000
22.254980 241.000000
22.274462 227.000000
22.293945 219.000000
22.313427 200.000000
22.332909 184.000000
22.352392 188.000000
22.371874 229.000000
22.391356 224.000000
22.410839 204.000000
22.430321 218.000000
22.449803 215.000000
22.469286 192.000000
22.488768 206.000000
22.508251 251.000000
22.527733 242.000000
22.547215 225.000000
22.566698 210.000000
22.586180 242.000000
22.605662 228.000000
22.625145 238.000000
22.644627 248.000000
22.664110 236.000000
22.683592 225.000000
22.703074 211.000000
22.722557 246.000000
22.742039 216.000000
22.761521 241.000000
22.781004 229.000000
22.800486 233.000000
22.819968 271.000000
22.839451 287.000000
22.858933 298.000000
22.878416 318.000000
22.897898 335.000000
22.917380 361.000000
22.936863 527.000000
22.956345 679.000000
22.975827 1007.000000
22.995310 1547.000000
23.014792 2339.000000
23.034275 2866.000000
23.053757 2980.000000
23.073239 2403.000000
23.092722 1995.000000
23.112204 1573.000000
23.131686 1037.000000
23.151169 681.000000
23.170651 459.000000
23.190133 360.000000
23.209616 351.000000
23.229098 290.000000
23.248581 272.000000
23.268063 253.000000
23.287545 255.000000
23.307028 290.000000
23.326510 184.000000
23.345992 207.000000
23.365475 230.000000
23.384957 202.000000
23.404440 230.000000
23.423922 187.000000
23.443404 242.000000
23.462887 216.000000
23.482369 226.000000
23.501851 230.000000
23.521334 194.000000
23.540816 200.000000
23.560298 193.000000
23.579781 209.000000
23.599263 215.000000
23.618746 183.000000
23.638228 205.000000
23.657710 210.000000
23.677193 173.000000
23.696675 208.000000
23.716157 183.000000
23.735640 202.000000
23.755122 178.000000
23.774605 198.000000
23.794087 192.000000
23.813569 201.000000
23.833052 191.000000
23.852534 204.000000
23.872016 172.000000
23.891499 179.000000
23.910981 195.000000
23.930463 198.000000
23.949946 200.000000
23.969428 202.000000
23.988911 186.000000
24.008393 202.000000
24.027875 213.000000
24.047358 186.000000
24.066840 202.000000
24.086322 204.000000
24.105805 203.000000
24.125287 218.000000
24.144770 198.000000
24.164252 230.000000
24.183734 215.000000
24.203217 206.000000
24.222699 210.000000
24.242181 175.000000
24.261664 185.000000
24.281146 191.000000
24.300629 210.000000
24.320111 200.000000
24.339593 198.000000
24.359076 209.000000
24.378558 204.000000
24.398040 182.000000
24.417523 178.000000
24.437005 168.000000
24.456487 188.000000
24.475970 182.000000
24.495452 217.000000
24.514935 208.000000
24.534417 166.000000
24.553899 198.000000
24.573382 185.000000
24.592864 200.000000
24.612346 199.000000
24.631829 210.000000
24.651311 195.000000
24.670794 188.000000
24.690276 171.000000
24.709758 198.000000
24.729241 189.000000
24.748723 213.000000
24.768205 211.000000
24.787688 196.000000
24.807170 218.000000
24.826652 203.000000
24.846135 202.000000
24.865617 202.000000
24.885100 187.000000
24.904582 195.000000
24.924064 198.000000
24.943547 209.000000
24.963029 180.000000
24.982511 189.000000
25.001994 186.000000
25.021476 191.000000
25.040959 197.000000
25.060441 193.000000
25.079923 182.000000
25.099406 200.000000
25.118888 184.000000
25.138370 219.000000
25.157853 215.000000
25.177335 208.000000
25.196817 176.000000
25.216300 211.000000
25.235782 176.000000
25.255265 175.000000
25.274747 184.000000
25.294229 209.000000
25.313712 194.000000
25.333194 186.000000
25.352676 173.000000
25.372159 210.000000
25.391641 226.000000
25.411124 192.000000
25.430606 196.000000
25.450088 168.000000
25.469571 202.000000
25.489053 177.000000
25.508535 198.000000
25.528018 179.000000
25.547500 203.000000
25.566982 186.000000
25.586465 196.000000
25.605947 198.000000
25.625430 175.000000
25.644912 191.000000
25.664394 188.000000
25.683877 196.000000
25.703359 198.000000
25.722841 173.000000
25.742324 175.000000
25.761806 174.000000
25.781289 207.000000
25.800771 207.000000
25.820253 178.000000
25.839736 178.000000
25.859218 202.000000
25.878700 191.000000
25.898183 181.000000
25.917665 208.000000
25.937148 181.000000
25.956630 199.000000
25.976112 164.000000
25.995595 199.000000
26.015077 190.000000
26.034559 191.000000
26.054042 179.000000
26.073524 203.000000
26.093006 187.000000
26.112489 206.000000
26.131971 208.000000
26.151454 171.000000
26.170936 189.000000
26.190418 187.000000
26.209901 185.000000
26.229383 199.000000
26.248865 209.000000
26.268348 181.000000
26.287830 204.000000
26.307313 184.000000
26.326795 214.000000
26.346277 180.000000
26.365760 217.000000
26.385242 213.000000
26.404724 212.000000
26.424207 229.000000
26.443689 250.000000
26.463171 250.000000
26.482654 317.000000
26.502136 333.000000
26.521619 262.000000
26.541101 246.000000
26.560583 223.000000
26.580066 251.000000
26.599548 236.000000
26.619030 264.000000
26.638513 262.000000
26.657995 296.000000
26.677478 354.000000
26.696960 308.000000
26.716442 250.000000
26.735925 246.000000
26.755407 269.000000
26.774889 204.000000
26.794372 196.000000
26.813854 165.000000
26.833336 195.000000
26.852819 180.000000
26.872301 189.000000
26.891784 174.000000
26.911266 206.000000
26.930748 201.000000
26.950231 181.000000
26.969713 190.000000
26.989195 187.000000
27.008678 168.000000
27.028160 199.000000
27.047643 172.000000
27.067125 190.000000
27.086607 186.000000
27.106090 179.000000
27.125572 179.000000
27.145054 202.000000
27.164537 177.000000
27.184019 163.000000
27.203501 176.000000
27.222984 210.000000
27.242466 188.000000
27.261949 182.000000
27.281431 192.000000
27.300913 197.000000
27.320396 185.000000
27.339878 169.000000
27.359360 170.000000
27.378843 179.000000
27.398325 156.000000
27.417808 187.000000
27.437290 177.000000
27.456772 190.000000
27.476255 162.000000
27.495737 180.000000
27.515219 189.000000
27.534702 172.000000
27.554184 176.000000
27.573667 175.000000
27.593149 192.000000
27.612631 177.000000
27.632114 190.000000
27.651596 183.000000
27.671078 186.000000
27.690561 168.000000
27.710043 183.000000
27.729525 178.000000
27.749008 175.000000
27.768490 179.000000
27.787973 172.000000
27.807455 183.000000
27.826937 167.000000
27.846420 227.000000
27.865902 210.000000
27.885384 191.000000
27.904867 160.000000
27.924349 169.000000
27.943832 176.000000
27.963314 174.000000
27.982796 180.000000
28.002279 167.000000
28.021761 202.000000
28.041243 185.000000
28.060726 177.000000
28.080208 177.000000
28.099690 174.000000
28.119173 166.000000
28.138655 194.000000
28.158138 209.000000
28.177620 196.000000
28.197102 178.000000
28.216585 190.000000
28.236067 188.000000
28.255549 205.000000
28.275032 176.000000
28.294514 182.000000
28.313997 215.000000
28.333479 229.000000
28.352961 250.000000
28.372444 263.000000
28.391926 300.000000
28.411408 339.000000
28.430891 270.000000
28.450373 287.000000
28.469855 336.000000
28.489338 300.000000
28.508820 316.000000
28.528303 355.000000
28.547785 349.000000
28.567267 320.000000
28.586750 315.000000
28.606232 343.000000
28.625714 330.000000
28.645197 322.000000
28.664679 325.000000
28.684162 313.000000
28.703644 330.000000
28.723126 319.000000
28.742609 303.000000
28.762091 331.000000
28.781573 339.000000
28.801056 313.000000
28.820538 377.000000
28.840020 391.000000
28.859503 393.000000
28.878985 376.000000
28.898468 378.000000
28.917950 362.000000
28.937432 378.000000
28.956915 426.000000
28.976397 459.000000
28.995879 471.000000
29.015362 463.000000
29.034844 528.000000
29.054327 500.000000
29.073809 572.000000
29.093291 652.000000
29.112774 663.000000
29.132256 728.000000
29.151738 855.000000
29.171221 959.000000
29.190703 1062.000000
29.210185 1383.000000
29.229668 1702.000000
29.249150 2321.000000
29.268633 2986.000000
29.288115 4248.000000
29.307597 7090.000000
29.327080 12875.000000
29.346562 24253.000000
29.366044 40303.000000
29.385527 51444.000000
29.405009 47902.000000
29.424492 35406.000000
29.443974 30080.000000
29.463456 28769.000000
29.482939 22266.000000
29.502421 12065.000000
29.521903 6070.000000
29.541386 3643.000000
29.560868 2373.000000
29.580351 1784.000000
29.599833 1493.000000
29.619315 1170.000000
29.638798 1036.000000
29.658280 915.000000
29.677762 794.000000
29.697245 709.000000
29.716727 618.000000
29.736209 591.000000
29.755692 584.000000
29.775174 501.000000
29.794657 491.000000
29.814139 447.000000
29.833621 441.000000
29.853104 423.000000
29.872586 413.000000
29.892068 409.000000
29.911551 387.000000
29.931033 360.000000
29.950516 358.000000
29.969998 336.000000
29.989480 363.000000
30.008963 321.000000
30.028445 309.000000
30.047927 343.000000
30.067410 307.000000
30.086892 313.000000
30.106374 300.000000
30.125857 275.000000
30.145339 284.000000
30.164822 294.000000
30.184304 300.000000
30.203786 270.000000
30.223269 284.000000
30.242751 259.000000
30.262233 279.000000
30.281716 263.000000
30.301198 279.000000
30.320681 242.000000
30.340163 254.000000
30.359645 288.000000
30.379128 241.000000
30.398610 278.000000
30.418092 241.000000
30.437575 235.000000
30.457057 239.000000
30.476539 260.000000
30.496022 236.000000
30.515504 229.000000
30.534987 257.000000
30.554469 245.000000
30.573951 241.000000
30.593434 255.000000
30.612916 275.000000
30.632398 229.000000
30.651881 235.000000
30.671363 237.000000
30.690846 235.000000
30.710328 255.000000
30.729810 221.000000
30.749293 242.000000
30.768775 266.000000
30.788257 204.000000
30.807740 226.000000
30.827222 206.000000
30.846704 212.000000
30.866187 253.000000
30.885669 219.000000
30.905152 248.000000
30.924634 213.000000
30.944116 244.000000
30.963599 239.000000
30.983081 241.000000
31.002563 258.000000
31.022046 242.000000
31.041528 222.000000
31.061011 225.000000
31.080493 232.000000
31.099975 235.000000
31.119458 227.000000
31.138940 217.000000
31.158422 218.000000
31.177905 252.000000
31.197387 227.000000
31.216870 260.000000
31.236352 266.000000
31.255834 252.000000
31.275317 249.000000
31.294799 278.000000
31.314281 311.000000
31.333764 338.000000
31.353246 408.000000
31.372728 556.000000
31.392211 809.000000
31.411693 977.000000
31.431176 1076.000000
31.450658 873.000000
31.470140 757.000000
31.489623 717.000000
31.509105 645.000000
31.528587 570.000000
31.548070 412.000000
31.567552 319.000000
31.587035 262.000000
31.606517 246.000000
31.625999 215.000000
31.645482 248.000000
31.664964 208.000000
31.684446 205.000000
31.703929 239.000000
31.723411 219.000000
31.742893 187.000000
31.762376 214.000000
31.781858 199.000000
31.801341 195.000000
31.820823 216.000000
31.840305 210.000000
31.859788 216.000000
31.879270 215.000000
31.898752 215.000000
31.918235 215.000000
31.937717 204.000000
31.957200 203.000000
31.976682 195.000000
31.996164 212.000000
32.015647 213.000000
32.035129 212.000000
32.054611 204.000000
32.074094 213.000000
32.093576 225.000000
32.113058 218.000000
32.132541 223.000000
32.152023 185.000000
32.171506 206.000000
32.190988 179.000000
32.210470 209.000000
32.229953 217.000000
32.249435 196.000000
32.268917 198.000000
32.288400 205.000000
32.307882 180.000000
32.327365 201.000000
32.346847 212.000000
32.366329 218.000000
32.385812 192.000000
32.405294 197.000000
32.424776 176.000000
32.444259 195.000000
32.463741 173.000000
32.483223 185.000000
32.502706 180.000000
32.522188 187.000000
32.541671 165.000000
32.561153 198.000000
32.580635 210.000000
32.600118 188.000000
32.619600 181.000000
32.639082 196.000000
32.658565 178.000000
32.678047 194.000000
32.697530 177.000000
32.717012 200.000000
32.736494 182.000000
32.755977 197.000000
32.775459 154.000000
32.794941 161.000000
32.814424 207.000000
32.833906 158.000000
32.853389 189.000000
32.872871 167.000000
32.892353 199.000000
32.911836 184.000000
32.931318 169.000000
32.950800 188.000000
32.970283 192.000000
32.989765 191.000000
33.009247 173.000000
33.028730 167.000000
33.048212 167.000000
33.067695 195.000000
33.087177 186.000000
33.106659 171.000000
33.126142 197.000000
33.145624 200.000000
33.165106 180.000000
33.184589 192.000000
33.204071 168.000000
33.223554 187.000000
33.243036 181.000000
33.262518 198.000000
33.282001 179.000000
33.301483 167.000000
33.320965 201.000000
33.340448 190.000000
33.359930 209.000000
33.379412 181.000000
33.398895 163.000000
33.418377 164.000000
33.437860 176.000000
33.457342 177.000000
33.476824 181.000000
33.496307 165.000000
33.515789 184.000000
33.535271 182.000000
33.554754 180.000000
33.574236 165.000000
33.593719 183.000000
33.613201 195.000000
33.632683 157.000000
33.652166 190.000000
33.671648 145.000000
33.691130 181.000000
33.710613 196.000000
33.730095 161.000000
33.749577 182.000000
33.769060 164.000000
33.788542 143.000000
33.808025 172.000000
33.827507 171.000000
33.846989 168.000000
33.866472 169.000000
33.885954 158.000000
33.905436 177.000000
33.924919 150.000000
33.944401 143.000000
33.963884 175.000000
33.983366 180.000000
34.002848 188.000000
34.022331 150.000000
34.041813 162.000000
34.061295 157.000000
34.080778 184.000000
34.100260 171.000000
34.119742 159.000000
34.139225 163.000000
34.158707 159.000000
34.178190 171.000000
34.197672 169.000000
34.217154 169.000000
34.236637 193.000000
34.256119 146.000000
34.275601 172.000000
34.295084 180.000000
34.314566 167.000000
34.334049 169.000000
34.353531 143.000000
34.373013 166.000000
34.392496 153.000000
34.411978 146.000000
34.431460 172.000000
34.450943 169.000000
34.470425 162.000000
34.489908 161.000000
34.509390 185.000000
34.528872 171.000000
34.548355 160.000000
34.567837 172.000000
34.587319 155.000000
34.606802 158.000000
34.626284 153.000000
34.645766 164.000000
34.665249 166.000000
34.684731 198.000000
34.704214 180.000000
34.723696 167.000000
34.743178 180.000000
34.762661 172.000000
34.782143 179.000000
34.801625 172.000000
34.821108 165.000000
34.840590 176.000000
34.860073 187.000000
34.879555 158.000000
34.899037 194.000000
34.918520 169.000000
34.938002 173.000000
34.957484 192.000000
34.976967 165.000000
34.996449 191.000000
35.015931 168.000000
35.035414 176.000000
35.054896 185.000000
35.074379 172.000000
35.093861 191.000000
35.113343 158.000000
35.132826 179.000000
35.152308 156.000000
35.171790 134.000000
35.191273 139.000000
35.210755 151.000000
35.230238 174.000000
35.249720 154.000000
35.269202 146.000000
35.288685 182.000000
35.308167 150.000000
35.327649 170.000000
35.347132 185.000000
35.366614 164.000000
35.386096 181.000000
35.405579 167.000000
35.425061 190.000000
35.444544 182.000000
35.464026 189.000000
35.483508 165.000000
35.502991 217.000000
35.522473 181.000000
35.541955 159.000000
35.561438 159.000000
35.580920 186.000000
35.600403 198.000000
35.619885 185.000000
35.639367 162.000000
35.658850 197.000000
35.678332 204.000000
35.697814 186.000000
35.717297 227.000000
35.736779 242.000000
35.756261 261.000000
35.775744 273.000000
35.795226 305.000000
35.814709 389.000000
35.834191 440.000000
35.853673 514.000000
35.873156 717.000000
35.892638 1072.000000
35.912120 1602.000000
35.931603 2567.000000
35.951085 2868.000000
35.970568 2678.000000
35.990050 2227.000000
36.009532 1848.000000
36.029015 1874.000000
36.048497 1815.000000
36.067979 1453.000000
36.087462 997.000000
36.106944 681.000000
36.126426 527.000000
36.145909 432.000000
36.165391 316.000000
36.184874 268.000000
36.204356 254.000000
36.223838 250.000000
36.243321 218.000000
36.262803 199.000000
36.282285 212.000000
36.301768 201.000000
36.321250 199.000000
36.340733 181.000000
36.360215 182.000000
36.379697 187.000000
36.399180 183.000000
36.418662 168.000000
36.438144 171.000000
36.457627 172.000000
36.477109 161.000000
36.496592 185.000000
36.516074 187.000000
36.535556 158.000000
36.555039 177.000000
36.574521 167.000000
36.594003 156.000000
36.613486 185.000000
36.632968 182.000000
36.652450 169.000000
36.671933 156.000000
36.691415 163.000000
36.710898 154.000000
36.730380 137.000000
36.749862 142.000000
36.769345 152.000000
36.788827 142.000000
36.808309 149.000000
36.827792 123.000000
36.847274 156.000000
36.866757 155.000000
36.886239 169.000000
36.905721 153.000000
36.925204 150.000000
36.944686 151.000000
36.964168 148.000000
36.983651 164.000000
37.003133 153.000000
37.022615 142.000000
37.042098 157.000000
37.061580 179.000000
37.081063 180.000000
37.100545 149.000000
37.120027 142.000000
37.139510 143.000000
37.158992 159.000000
37.178474 154.000000
37.197957 156.000000
37.217439 165.000000
37.236922 143.000000
37.256404 134.000000
37.275886 154.000000
37.295369 147.000000
37.314851 157.000000
37.334333 164.000000
37.353816 141.000000
37.373298 133.000000
37.392780 153.000000
37.412263 134.000000
37.431745 129.000000
37.451228 142.000000
37.470710 152.000000
37.490192 152.000000
37.509675 149.000000
37.529157 140.000000
37.548639 159.000000
37.568122 161.000000
37.587604 142.000000
37.607087 142.000000
37.626569 154.000000
37.646051 130.000000
37.665534 137.000000
37.685016 134.000000
37.704498 152.000000
37.723981 132.000000
37.743463 156.000000
37.762945 140.000000
37.782428 147.000000
37.801910 153.000000
37.821393 152.000000
37.840875 157.000000
37.860357 125.000000
37.879840 137.000000
37.899322 157.000000
37.918804 150.000000
37.938287 120.000000
37.957769 158.000000
37.977252 145.000000
37.996734 150.000000
38.016216 132.000000
38.035699 153.000000
38.055181 164.000000
38.074663 154.000000
38.094146 191.000000
38.113628 177.000000
38.133111 162.000000
38.152593 165.000000
38.172075 160.000000
38.191558 147.000000
38.211040 161.000000
38.230522 163.000000
38.250005 155.000000
38.269487 146.000000
38.288969 149.000000
38.308452 150.000000
38.327934 169.000000
38.347417 170.000000
38.366899 147.000000
38.386381 184.000000
38.405864 167.000000
38.425346 154.000000
38.444828 158.000000
38.464311 139.000000
38.483793 162.000000
38.503276 176.000000
38.522758 176.000000
38.542240 161.000000
38.561723 180.000000
38.581205 136.000000
38.600687 164.000000
38.620170 146.000000
38.639652 172.000000
38.659134 169.000000
38.678617 171.000000
38.698099 176.000000
38.717582 146.000000
38.737064 169.000000
38.756546 175.000000
38.776029 163.000000
38.795511 172.000000
38.814993 142.000000
38.834476 170.000000
38.853958 174.000000
38.873441 185.000000
38.892923 168.000000
38.912405 175.000000
38.931888 190.000000
38.951370 175.000000
38.970852 199.000000
38.990335 179.000000
39.009817 206.000000
39.029299 177.000000
39.048782 210.000000
39.068264 199.000000
39.087747 240.000000
39.107229 250.000000
39.126711 251.000000
39.146194 276.000000
39.165676 286.000000
39.185158 315.000000
39.204641 378.000000
39.224123 433.000000
39.243606 525.000000
39.263088 579.000000
39.282570 690.000000
39.302053 1032.000000
39.321535 1439.000000
39.341017 2279.000000
39.360500 3698.000000
39.379982 4931.000000
39.399464 5254.000000
39.418947 4680.000000
39.438429 3755.000000
39.457912 3106.000000
39.477394 3183.000000
39.496876 3252.000000
39.516359 2764.000000
39.535841 1917.000000
39.555323 1227.000000
39.574806 872.000000
39.594288 618.000000
39.613771 499.000000
39.633253 420.000000
39.652735 343.000000
39.672218 324.000000
39.691700 312.000000
39.711182 245.000000
39.730665 239.000000
39.750147 234.000000
39.769630 224.000000
39.789112 220.000000
39.808594 203.000000
39.828077 195.000000
39.847559 170.000000
39.867041 195.000000
39.886524 186.000000
39.906006 174.000000
39.925488 155.000000
39.944971 186.000000
39.964453 165.000000
39.983936 187.000000
40.003418 162.000000
40.022900 175.000000
40.042383 169.000000
40.061865 170.000000
40.081347 188.000000
40.100830 153.000000
40.120312 155.000000
40.139795 144.000000
40.159277 169.000000
40.178759 153.000000
40.198242 169.000000
40.217724 152.000000
40.237206 132.000000
40.256689 172.000000
40.276171 152.000000
40.295653 150.000000
40.315136 146.000000
40.334618 152.000000
40.354101 140.000000
40.373583 157.000000
40.393065 154.000000
40.412548 147.000000
40.432030 131.000000
40.451512 153.000000
40.470995 144.000000
40.490477 133.000000
40.509960 144.000000
40.529442 161.000000
40.548924 154.000000
40.568407 147.000000
40.587889 141.000000
40.607371 127.000000
40.626854 164.000000
40.646336 166.000000
40.665818 142.000000
40.685301 140.000000
40.704783 142.000000
40.724266 149.000000
40.743748 145.000000
40.763230 139.000000
40.782713 130.000000
40.802195 135.000000
40.821677 165.000000
40.841160 131.000000
40.860642 156.000000
40.880125 167.000000
40.899607 152.000000
40.919089 158.000000
40.938572 151.000000
40.958054 141.000000
40.977536 139.000000
40.997019 158.000000
41.016501 160.000000
41.035983 139.000000
41.055466 159.000000
41.074948 166.000000
41.094431 120.000000
41.113913 154.000000
41.133395 168.000000
41.152878 142.000000
41.172360 135.000000
41.191842 130.000000
41.211325 150.000000
41.230807 172.000000
41.250290 145.000000
41.269772 145.000000
41.289254 128.000000
41.308737 126.000000
41.328219 137.000000
41.347701 152.000000
41.367184 146.000000
41.386666 140.000000
41.406149 145.000000
41.425631 124.000000
41.445113 129.000000
41.464596 140.000000
41.484078 139.000000
41.503560 145.000000
41.523043 141.000000
41.542525 111.000000
41.562007 163.000000
41.581490 159.000000
41.600972 168.000000
41.620455 159.000000
41.639937 157.000000
41.659419 161.000000
41.678902 136.000000
41.698384 154.000000
41.717866 151.000000
41.737349 151.000000
41.756831 164.000000
41.776314 132.000000
41.795796 157.000000
41.815278 155.000000
41.834761 148.000000
41.854243 132.000000
41.873725 163.000000
41.893208 168.000000
41.912690 152.000000
41.932172 170.000000
41.951655 143.000000
41.971137 165.000000
41.990620 140.000000
42.010102 145.000000
42.029584 146.000000
42.049067 159.000000
42.068549 163.000000
42.088031 164.000000
42.107514 162.000000
42.126996 156.000000
42.146479 167.000000
42.165961 139.000000
42.185443 147.000000
42.204926 142.000000
42.224408 159.000000
42.243890 159.000000
42.263373 158.000000
42.282855 145.000000
42.302337 145.000000
42.321820 143.000000
42.341302 179.000000
42.360785 139.000000
42.380267 138.000000
42.399749 155.000000
42.419232 154.000000
42.438714 163.000000
42.458196 180.000000
42.477679 131.000000
42.497161 139.000000
42.516644 143.000000
42.536126 168.000000
42.555608 171.000000
42.575091 151.000000
42.594573 153.000000
42.614055 149.000000
42.633538 169.000000
42.653020 186.000000
42.672502 195.000000
42.691985 165.000000
42.711467 149.000000
42.730950 177.000000
42.750432 200.000000
42.769914 159.000000
42.789397 181.000000
42.808879 216.000000
42.828361 211.000000
42.847844 159.000000
42.867326 211.000000
42.886809 219.000000
42.906291 244.000000
42.925773 260.000000
42.945256 284.000000
42.964738 299.000000
42.984220 392.000000
43.003703 366.000000
43.023185 457.000000
43.042667 575.000000
43.062150 892.000000
43.081632 1438.000000
43.101115 2293.000000
43.120597 3532.000000
43.140079 4231.000000
43.159562 4115.000000
43.179044 3216.000000
43.198526 2382.000000
43.218009 2135.000000
43.237491 2362.000000
43.256974 2487.000000
43.276456 2235.000000
43.295938 1521.000000
43.315421 992.000000
43.334903 669.000000
43.354385 498.000000
43.373868 399.000000
43.393350 322.000000
43.412833 296.000000
43.432315 264.000000
43.451797 229.000000
43.471280 255.000000
43.490762 223.000000
43.510244 228.000000
43.529727 236.000000
43.549209 180.000000
43.568691 186.000000
43.588174 197.000000
43.607656 190.000000
43.627139 161.000000
43.646621 171.000000
43.666103 166.000000
43.685586 171.000000
43.705068 174.000000
43.724550 177.000000
43.744033 180.000000
43.763515 164.000000
43.782998 158.000000
43.802480 172.000000
43.821962 175.000000
43.841445 149.000000
43.860927 181.000000
43.880409 138.000000
43.899892 137.000000
43.919374 169.000000
43.938856 134.000000
43.958339 171.000000
43.977821 154.000000
43.997304 164.000000
44.016786 165.000000
44.036268 139.000000
44.055751 159.000000
44.075233 161.000000
44.094715 132.000000
44.114198 147.000000
44.133680 150.000000
44.153163 144.000000
44.172645 155.000000
44.192127 161.000000
44.211610 147.000000
44.231092 151.000000
44.250574 133.000000
44.270057 151.000000
44.289539 157.000000
44.309021 138.000000
44.328504 145.000000
44.347986 141.000000
44.367469 133.000000
44.386951 154.000000
44.406433 141.000000
44.425916 157.000000
44.445398 143.000000
44.464880 160.000000
44.484363 159.000000
44.503845 159.000000
44.523328 131.000000
44.542810 168.000000
44.562292 160.000000
44.581775 152.000000
44.601257 133.000000
44.620739 134.000000
44.640222 155.000000
44.659704 123.000000
44.679186 170.000000
44.698669 152.000000
44.718151 134.000000
44.737634 146.000000
44.757116 157.000000
44.776598 135.000000
44.796081 141.000000
44.815563 139.000000
44.835045 162.000000
44.854528 156.000000
44.874010 155.000000
44.893493 147.000000
44.912975 132.000000
44.932457 150.000000
44.951940 162.000000
44.971422 148.000000
44.990904 123.000000
45.010387 147.000000
45.029869 139.000000
45.049352 148.000000
45.068834 153.000000
45.088316 141.000000
45.107799 141.000000
45.127281 132.000000
45.146763 147.000000
45.166246 151.000000
45.185728 139.000000
45.205210 144.000000
45.224693 138.000000
45.244175 134.000000
45.263658 152.000000
45.283140 141.000000
45.302622 145.000000
45.322105 139.000000
45.341587 143.000000
45.361069 118.000000
45.380552 151.000000
45.400034 166.000000
45.419517 132.000000
45.438999 134.000000
45.458481 150.000000
45.477964 139.000000
45.497446 139.000000
45.516928 145.000000
45.536411 157.000000
45.555893 122.000000
45.575375 121.000000
45.594858 136.000000
45.614340 145.000000
45.633823 170.000000
45.653305 139.000000
45.672787 151.000000
45.692270 140.000000
45.711752 149.000000
45.731234 134.000000
45.750717 146.000000
45.770199 132.000000
45.789682 178.000000
45.809164 163.000000
45.828646 176.000000
45.848129 163.000000
45.867611 177.000000
45.887093 149.000000
45.906576 145.000000
45.926058 176.000000
45.945540 166.000000
45.965023 154.000000
45.984505 168.000000
46.003988 147.000000
46.023470 154.000000
46.042952 173.000000
46.062435 163.000000
46.081917 143.000000
46.101399 154.000000
46.120882 144.000000
46.140364 140.000000
46.159847 156.000000
46.179329 158.000000
46.198811 163.000000
46.218294 162.000000
46.237776 161.000000
46.257258 168.000000
46.276741 167.000000
46.296223 145.000000
46.315705 144.000000
46.335188 159.000000
46.354670 143.000000
46.374153 186.000000
46.393635 168.000000
46.413117 167.000000
46.432600 147.000000
46.452082 180.000000
46.471564 159.000000
46.491047 147.000000
46.510529 191.000000
46.530012 165.000000
46.549494 163.000000
46.568976 181.000000
46.588459 173.000000
46.607941 171.000000
46.627423 182.000000
46.646906 169.000000
46.666388 179.000000
46.685871 162.000000
46.705353 181.000000
46.724835 205.000000
46.744318 182.000000
46.763800 217.000000
46.783282 198.000000
46.802765 189.000000
46.822247 215.000000
46.841729 222.000000
46.861212 231.000000
46.880694 270.000000
46.900177 246.000000
46.919659 287.000000
46.939141 316.000000
46.958624 348.000000
46.978106 363.000000
46.997588 419.000000
47.017071 561.000000
47.036553 656.000000
47.056036 853.000000
47.075518 989.000000
47.095000 1156.000000
47.114483 1181.000000
47.133965 1080.000000
47.153447 989.000000
47.172930 930.000000
47.192412 902.000000
47.211894 870.000000
47.231377 907.000000
47.250859 833.000000
47.270342 767.000000
47.289824 789.000000
47.309306 741.000000
47.328789 746.000000
47.348271 867.000000
47.367753 1000.000000
47.387236 1264.000000
47.406718 1667.000000
47.426201 2385.000000
47.445683 3402.000000
47.465165 4506.000000
47.484648 5604.000000
47.504130 5944.000000
47.523612 5368.000000
47.543095 4657.000000
47.562577 3984.000000
47.582059 3693.000000
47.601542 3728.000000
47.621024 3665.000000
47.640507 3314.000000
47.659989 2686.000000
47.679471 2001.000000
47.698954 1408.000000
47.718436 1094.000000
47.737918 874.000000
47.757401 638.000000
47.776883 511.000000
47.796366 472.000000
47.815848 400.000000
47.835330 367.000000
47.854813 376.000000
47.874295 301.000000
47.893777 304.000000
47.913260 292.000000
47.932742 273.000000
47.952224 279.000000
47.971707 292.000000
47.991189 269.000000
48.010672 279.000000
48.030154 266.000000
48.049636 248.000000
48.069119 248.000000
48.088601 270.000000
48.108083 262.000000
48.127566 270.000000
48.147048 267.000000
48.166531 278.000000
48.186013 309.000000
48.205495 348.000000
48.224978 327.000000
48.244460 368.000000
48.263942 376.000000
48.283425 452.000000
48.302907 495.000000
48.322389 525.000000
48.341872 653.000000
48.361354 766.000000
48.380837 977.000000
48.400319 1440.000000
48.419801 1982.000000
48.439284 2759.000000
48.458766 3848.000000
48.478248 4657.000000
48.497731 5207.000000
48.517213 4826.000000
48.536696 4008.000000
48.556178 3319.000000
48.575660 3100.000000
48.595143 3009.000000
48.614625 3024.000000
48.634107 2909.000000
48.653590 2345.000000
48.673072 1761.000000
48.692555 1361.000000
48.712037 922.000000
48.731519 716.000000
48.751002 566.000000
48.770484 484.000000
48.789966 421.000000
48.809449 375.000000
48.828931 356.000000
48.848413 310.000000
48.867896 299.000000
48.887378 235.000000
48.906861 247.000000
48.926343 220.000000
48.945825 248.000000
48.965308 247.000000
48.984790 191.000000
49.004272 217.000000
49.023755 212.000000
49.043237 189.000000
49.062720 199.000000
49.082202 188.000000
49.101684 231.000000
49.121167 168.000000
49.140649 173.000000
49.160131 176.000000
49.179614 160.000000
49.199096 179.000000
49.218578 164.000000
49.238061 175.000000
49.257543 167.000000
49.277026 137.000000
49.296508 180.000000
49.315990 153.000000
49.335473 175.000000
49.354955 158.000000
49.374437 155.000000
49.393920 138.000000
49.413402 164.000000
49.432885 151.000000
49.452367 145.000000
49.471849 165.000000
49.491332 162.000000
49.510814 125.000000
49.530296 139.000000
49.549779 170.000000
49.569261 143.000000
49.588743 152.000000
49.608226 153.000000
49.627708 175.000000
49.647191 157.000000
49.666673 171.000000
49.686155 158.000000
49.705638 142.000000
49.725120 172.000000
49.744602 172.000000
49.764085 154.000000
49.783567 155.000000
49.803050 127.000000
49.822532 153.000000
49.842014 143.000000
49.861497 150.000000
49.880979 120.000000
49.900461 144.000000
49.919944 137.000000
49.939426 142.000000
49.958908 138.000000
49.978391 156.000000
49.997873 159.000000
50.017356 167.000000
50.036838 140.000000
50.056320 145.000000
50.075803 131.000000
50.095285 134.000000
50.114767 149.000000
50.134250 128.000000
50.153732 133.000000
50.173215 139.000000
50.192697 148.000000
50.212179 120.000000
50.231662 136.000000
50.251144 145.000000
50.270626 171.000000
50.290109 138.000000
50.309591 138.000000
50.329074 134.000000
50.348556 130.000000
50.368038 141.000000
50.387521 127.000000
50.407003 131.000000
50.426485 149.000000
50.445968 127.000000
50.465450 141.000000
50.484932 140.000000
50.504415 137.000000
50.523897 141.000000
50.543380 153.000000
50.562862 129.000000
50.582344 135.000000
50.601827 134.000000
50.621309 147.000000
50.640791 132.000000
50.660274 156.000000
50.679756 130.000000
50.699239 133.000000
50.718721 145.000000
50.738203 141.000000
50.757686 135.000000
50.777168 120.000000
50.796650 142.000000
50.816133 142.000000
50.835615 145.000000
50.855097 146.000000
50.874580 150.000000
50.894062 138.000000
50.913545 126.000000
50.933027 133.000000
50.952509 124.000000
50.971992 116.000000
50.991474 134.000000
51.010956 120.000000
51.030439 131.000000
51.049921 114.000000
51.069404 147.000000
51.088886 122.000000
51.108368 145.000000
51.127851 124.000000
51.147333 123.000000
51.166815 136.000000
51.186298 130.000000
51.205780 114.000000
51.225262 124.000000
51.244745 133.000000
51.264227 131.000000
51.283710 117.000000
51.303192 132.000000
51.322674 141.000000
51.342157 132.000000
51.361639 124.000000
51.381121 106.000000
51.400604 138.000000
51.420086 127.000000
51.439569 121.000000
51.459051 136.000000
51.478533 142.000000
51.498016 140.000000
51.517498 113.000000
51.536980 123.000000
51.556463 131.000000
51.575945 125.000000
51.595427 127.000000
51.614910 123.000000
51.634392 142.000000
51.653875 136.000000
51.673357 114.000000
51.692839 110.000000
51.712322 126.000000
51.731804 129.000000
51.751286 129.000000
51.770769 131.000000
51.790251 118.000000
51.809734 123.000000
51.829216 139.000000
51.848698 145.000000
51.868181 128.000000
51.887663 124.000000
51.907145 114.000000
51.926628 147.000000
51.946110 150.000000
51.965593 107.000000
51.985075 129.000000
52.004557 116.000000
52.024040 119.000000
52.043522 110.000000
52.063004 126.000000
52.082487 118.000000
52.101969 128.000000
52.121451 132.000000
52.140934 109.000000
52.160416 118.000000
52.179899 118.000000
52.199381 139.000000
52.218863 118.000000
52.238346 123.000000
52.257828 130.000000
52.277310 114.000000
52.296793 131.000000
52.316275 127.000000
52.335758 114.000000
52.355240 155.000000
52.374722 133.000000
52.394205 122.000000
52.413687 135.000000
52.433169 115.000000
52.452652 103.000000
52.472134 114.000000
52.491616 110.000000
52.511099 121.000000
52.530581 119.000000
52.550064 133.000000
52.569546 143.000000
52.589028 96.000000
52.608511 132.000000
52.627993 101.000000
52.647475 101.000000
52.666958 109.000000
52.686440 133.000000
52.705923 119.000000
52.725405 98.000000
52.744887 129.000000
52.764370 120.000000
52.783852 106.000000
52.803334 130.000000
52.822817 120.000000
52.842299 114.000000
52.861781 115.000000
52.881264 147.000000
52.900746 140.000000
52.920229 135.000000
52.939711 104.000000
52.959193 119.000000
52.978676 125.000000
52.998158 133.000000
53.017640 125.000000
53.037123 141.000000
53.056605 129.000000
53.076088 111.000000
53.095570 109.000000
53.115052 116.000000
53.134535 100.000000
53.154017 116.000000
53.173499 120.000000
53.192982 104.000000
53.212464 135.000000
53.231946 104.000000
53.251429 119.000000
53.270911 155.000000
53.290394 104.000000
53.309876 138.000000
53.329358 117.000000
53.348841 112.000000
53.368323 139.000000
53.387805 123.000000
53.407288 123.000000
53.426770 151.000000
53.446253 109.000000
53.465735 118.000000
53.485217 116.000000
53.504700 122.000000
53.524182 134.000000
53.543664 129.000000
53.563147 147.000000
53.582629 95.000000
53.602112 109.000000
53.621594 137.000000
53.641076 105.000000
53.660559 109.000000
53.680041 89.000000
53.699523 114.000000
53.719006 122.000000
53.738488 119.000000
53.757970 94.000000
53.777453 115.000000
53.796935 103.000000
53.816418 137.000000
53.835900 132.000000
53.855382 119.000000
53.874865 109.000000
53.894347 109.000000
53.913829 115.000000
53.933312 129.000000
53.952794 113.000000
53.972277 124.000000
53.991759 114.000000
54.011241 98.000000
54.030724 113.000000
54.050206 94.000000
54.069688 111.000000
54.089171 131.000000
54.108653 122.000000
54.128135 136.000000
54.147618 94.000000
54.167100 121.000000
54.186583 111.000000
54.206065 107.000000
54.225547 110.000000
54.245030 123.000000
54.264512 106.000000
54.283994 125.000000
54.303477 132.000000
54.322959 113.000000
54.342442 153.000000
54.361924 133.000000
54.381406 105.000000
54.400889 119.000000
54.420371 117.000000
54.439853 121.000000
54.459336 117.000000
54.478818 104.000000
54.498300 124.000000
54.517783 106.000000
54.537265 132.000000
54.556748 123.000000
54.576230 112.000000
54.595712 106.000000
54.615195 132.000000
54.634677 143.000000
54.654159 116.000000
54.673642 97.000000
54.693124 121.000000
54.712607 111.000000
54.732089 120.000000
54.751571 113.000000
54.771054 107.000000
54.790536 126.000000
54.810018 110.000000
54.829501 94.000000
54.848983 109.000000
54.868465 125.000000
54.887948 119.000000
54.907430 127.000000
54.926913 131.000000
54.946395 114.000000
54.965877 121.000000
54.985360 116.000000
55.004842 112.000000
55.024324 102.000000
55.043807 118.000000
55.063289 121.000000
55.082772 105.000000
55.102254 115.000000
55.121736 93.000000
55.141219 111.000000
55.160701 119.000000
55.180183 112.000000
55.199666 104.000000
55.219148 123.000000
55.238630 116.000000
55.258113 131.000000
55.277595 118.000000
55.297078 116.000000
55.316560 115.000000
55.336042 121.000000
55.355525 112.000000
55.375007 102.000000
55.394489 99.000000
55.413972 102.000000
55.433454 126.000000
55.452937 105.000000
55.472419 115.000000
55.491901 103.000000
55.511384 128.000000
55.530866 105.000000
55.550348 123.000000
55.569831 111.000000
55.589313 110.000000
55.608796 118.000000
55.628278 100.000000
55.647760 105.000000
55.667243 96.000000
55.686725 140.000000
55.706207 125.000000
55.725690 94.000000
55.745172 110.000000
55.764654 102.000000
55.784137 105.000000
55.803619 107.000000
55.823102 125.000000
55.842584 108.000000
55.862066 119.000000
55.881549 96.000000
55.901031 124.000000
55.920513 115.000000
55.939996 122.000000
55.959478 111.000000
55.978961 127.000000
55.998443 110.000000
56.017925 118.000000
56.037408 121.000000
56.056890 111.000000
56.076372 119.000000
56.095855 116.000000
56.115337 119.000000
56.134819 135.000000
56.154302 134.000000
56.173784 127.000000
56.193267 102.000000
56.212749 118.000000
56.232231 149.000000
56.251714 132.000000
56.271196 137.000000
56.290678 132.000000
56.310161 149.000000
56.329643 150.000000
56.349126 138.000000
56.368608 182.000000
56.388090 182.000000
56.407573 161.000000
56.427055 223.000000
56.446537 241.000000
56.466020 301.000000
56.485502 392.000000
56.504984 498.000000
56.524467 657.000000
56.543949 722.000000
56.563432 771.000000
56.582914 736.000000
56.602396 565.000000
56.621879 539.000000
56.641361 395.000000
56.660843 442.000000
56.680326 460.000000
56.699808 484.000000
56.719291 452.000000
56.738773 437.000000
56.758255 325.000000
56.777738 287.000000
56.797220 227.000000
56.816702 215.000000
56.836185 188.000000
56.855667 161.000000
56.875149 154.000000
56.894632 159.000000
56.914114 154.000000
56.933597 164.000000
56.953079 160.000000
56.972561 156.000000
56.992044 148.000000
57.011526 162.000000
57.031008 151.000000
57.050491 183.000000
57.069973 159.000000
57.089456 180.000000
57.108938 188.000000
57.128420 198.000000
57.147903 195.000000
57.167385 194.000000
57.186867 232.000000
57.206350 232.000000
57.225832 264.000000
57.245315 338.000000
57.264797 415.000000
57.284279 457.000000
57.303762 618.000000
57.323244 738.000000
57.342726 997.000000
57.362209 1144.000000
57.381691 1335.000000
57.401173 1290.000000
57.420656 1166.000000
57.440138 956.000000
57.459621 919.000000
57.479103 786.000000
57.498585 806.000000
57.518068 820.000000
57.537550 816.000000
57.557032 832.000000
57.576515 725.000000
57.595997 602.000000
57.615480 506.000000
57.634962 367.000000
57.654444 305.000000
57.673927 273.000000
57.693409 252.000000
57.712891 204.000000
57.732374 192.000000
57.751856 213.000000
57.771338 177.000000
57.790821 185.000000
57.810303 172.000000
57.829786 164.000000
57.849268 160.000000
57.868750 147.000000
57.888233 174.000000
57.907715 156.000000
57.927197 171.000000
57.946680 163.000000
57.966162 205.000000
57.985645 227.000000
58.005127 235.000000
58.024609 284.000000
58.044092 308.000000
58.063574 382.000000
58.083056 336.000000
58.102539 288.000000
58.122021 249.000000
58.141503 258.000000
58.160986 241.000000
58.180468 223.000000
58.199951 218.000000
58.219433 214.000000
58.238915 250.000000
58.258398 220.000000
58.277880 209.000000
58.297362 194.000000
58.316845 142.000000
58.336327 147.000000
58.355810 133.000000
58.375292 125.000000
58.394774 142.000000
58.414257 109.000000
58.433739 130.000000
58.453221 118.000000
58.472704 119.000000
58.492186 122.000000
58.511668 119.000000
58.531151 142.000000
58.550633 107.000000
58.570116 113.000000
58.589598 131.000000
58.609080 118.000000
58.628563 124.000000
58.648045 114.000000
58.667527 127.000000
58.687010 104.000000
58.706492 104.000000
58.725975 104.000000
58.745457 114.000000
58.764939 120.000000
58.784422 126.000000
58.803904 119.000000
58.823386 107.000000
58.842869 109.000000
58.862351 100.000000
58.881834 119.000000
58.901316 123.000000
58.920798 104.000000
58.940281 112.000000
58.959763 122.000000
58.979245 139.000000
58.998728 118.000000
59.018210 123.000000
59.037692 122.000000
59.057175 110.000000
59.076657 86.000000
59.096140 111.000000
59.115622 119.000000
59.135104 114.000000
59.154587 119.000000
59.174069 113.000000
59.193551 95.000000
59.213034 116.000000
59.232516 115.000000
59.251999 93.000000
59.271481 122.000000
59.290963 114.000000
59.310446 106.000000
59.329928 107.000000
59.349410 110.000000
59.368893 125.000000
59.388375 130.000000
59.407857 111.000000
59.427340 105.000000
59.446822 121.000000
59.466305 117.000000
59.485787 116.000000
59.505269 88.000000
59.524752 108.000000
59.544234 107.000000
59.563716 94.000000
59.583199 107.000000
59.602681 111.000000
59.622164 104.000000
59.641646 123.000000
59.661128 111.000000
59.680611 105.000000
59.700093 106.000000
59.719575 97.000000
59.739058 121.000000
59.758540 113.000000
59.778022 104.000000
59.797505 119.000000
59.816987 120.000000
59.836470 97.000000
59.855952 107.000000
59.875434 127.000000
59.894917 137.000000
59.914399 161.000000
59.933881 147.000000
59.953364 161.000000
59.972846 163.000000
59.992329 190.000000
60.011811 148.000000
60.031293 139.000000
60.050776 139.000000
60.070258 124.000000
60.089740 133.000000
60.109223 140.000000
60.128705 162.000000
60.148187 144.000000
60.167670 146.000000
60.187152 137.000000
60.206635 154.000000
60.226117 128.000000
60.245599 134.000000
60.265082 125.000000
60.284564 137.000000
60.304046 165.000000
60.323529 125.000000
60.343011 136.000000
60.362494 149.000000
60.381976 155.000000
60.401458 153.000000
60.420941 158.000000
60.440423 167.000000
60.459905 169.000000
60.479388 200.000000
60.498870 194.000000
60.518352 234.000000
60.537835 306.000000
60.557317 338.000000
60.576800 420.000000
60.596282 582.000000
60.615764 785.000000
60.635247 1003.000000
60.654729 1160.000000
60.674211 1090.000000
60.693694 966.000000
60.713176 768.000000
60.732659 645.000000
60.752141 576.000000
60.771623 585.000000
60.791106 659.000000
60.810588 703.000000
60.830070 681.000000
60.849553 685.000000
60.869035 589.000000
60.888518 503.000000
60.908000 505.000000
60.927482 532.000000
60.946965 677.000000
60.966447 739.000000
60.985929 842.000000
61.005412 807.000000
61.024894 747.000000
61.044376 610.000000
61.063859 452.000000
61.083341 460.000000
61.102824 436.000000
61.122306 467.000000
61.141788 561.000000
61.161271 506.000000
61.180753 496.000000
61.200235 412.000000
61.219718 390.000000
61.239200 363.000000
61.258683 356.000000
61.278165 419.000000
61.297647 488.000000
61.317130 625.000000
61.336612 688.000000
61.356094 771.000000
61.375577 714.000000
61.395059 699.000000
61.414541 552.000000
61.434024 532.000000
61.453506 440.000000
61.472989 447.000000
61.492471 493.000000
61.511953 510.000000
61.531436 466.000000
61.550918 448.000000
61.570400 407.000000
61.589883 372.000000
61.609365 263.000000
61.628848 237.000000
61.648330 184.000000
61.667812 171.000000
61.687295 153.000000
61.706777 154.000000
61.726259 140.000000
61.745742 146.000000
61.765224 134.000000
61.784706 120.000000
61.804189 100.000000
61.823671 149.000000
61.843154 146.000000
61.862636 130.000000
61.882118 106.000000
61.901601 111.000000
61.921083 105.000000
61.940565 103.000000
61.960048 114.000000
61.979530 112.000000
61.999013 120.000000
62.018495 116.000000
62.037977 115.000000
62.057460 111.000000
62.076942 103.000000
62.096424 126.000000
62.115907 116.000000
62.135389 94.000000
62.154871 106.000000
62.174354 107.000000
62.193836 110.000000
62.213319 126.000000
62.232801 114.000000
62.252283 98.000000
62.271766 125.000000
62.291248 116.000000
62.310730 124.000000
62.330213 97.000000
62.349695 114.000000
62.369178 100.000000
62.388660 118.000000
62.408142 111.000000
62.427625 108.000000
62.447107 119.000000
62.466589 114.000000
62.486072 121.000000
62.505554 116.000000
62.525037 102.000000
62.544519 96.000000
62.564001 116.000000
62.583484 117.000000
62.602966 124.000000
62.622448 110.000000
62.641931 109.000000
62.661413 117.000000
62.680895 99.000000
62.700378 125.000000
62.719860 124.000000
62.739343 125.000000
62.758825 101.000000
62.778307 137.000000
62.797790 138.000000
62.817272 141.000000
62.836754 137.000000
62.856237 153.000000
62.875719 132.000000
62.895202 147.000000
62.914684 203.000000
62.934166 203.000000
62.953649 244.000000
62.973131 296.000000
62.992613 342.000000
63.012096 369.000000
63.031578 447.000000
63.051060 415.000000
63.070543 452.000000
63.090025 359.000000
63.109508 297.000000
63.128990 317.000000
63.148472 277.000000
63.167955 303.000000
63.187437 297.000000
63.206919 346.000000
63.226402 329.000000
63.245884 294.000000
63.265367 265.000000
63.284849 196.000000
63.304331 194.000000
63.323814 179.000000
63.343296 154.000000
63.362778 160.000000
63.382261 134.000000
63.401743 122.000000
63.421225 116.000000
63.440708 160.000000
63.460190 117.000000
63.479673 143.000000
63.499155 118.000000
63.518637 127.000000
63.538120 109.000000
63.557602 111.000000
63.577084 104.000000
63.596567 98.000000
63.616049 97.000000
63.635532 125.000000
63.655014 118.000000
63.674496 98.000000
63.693979 104.000000
63.713461 98.000000
63.732943 112.000000
63.752426 96.000000
63.771908 106.000000
63.791390 100.000000
63.810873 103.000000
63.830355 104.000000
63.849838 107.000000
63.869320 108.000000
63.888802 105.000000
63.908285 109.000000
63.927767 123.000000
63.947249 122.000000
63.966732 123.000000
63.986214 119.000000
64.005697 102.000000
64.025179 97.000000
64.044661 99.000000
64.064144 125.000000
64.083626 90.000000
64.103108 108.000000
64.122591 107.000000
64.142073 134.000000
64.161556 126.000000
64.181038 113.000000
64.200520 111.000000
64.220003 109.000000
64.239485 126.000000
64.258967 126.000000
64.278450 123.000000
64.297932 132.000000
64.317414 123.000000
64.336897 123.000000
64.356379 150.000000
64.375862 139.000000
64.395344 168.000000
64.414826 151.000000
64.434309 173.000000
64.453791 179.000000
64.473273 197.000000
64.492756 250.000000
64.512238 251.000000
64.531721 314.000000
64.551203 374.000000
64.570685 497.000000
64.590168 715.000000
64.609650 891.000000
64.629132 1053.000000
64.648615 1184.000000
64.668097 1245.000000
64.687579 1080.000000
64.707062 908.000000
64.726544 747.000000
64.746027 639.000000
64.765509 604.000000
64.784991 592.000000
64.804474 726.000000
64.823956 799.000000
64.843438 678.000000
64.862921 652.000000
64.882403 546.000000
64.901886 450.000000
64.921368 364.000000
64.940850 300.000000
64.960333 235.000000
64.979815 237.000000
64.999297 175.000000
65.018780 174.000000
65.038262 172.000000
65.057744 158.000000
65.077227 167.000000
65.096709 145.000000
65.116192 136.000000
65.135674 147.000000
65.155156 126.000000
65.174639 153.000000
65.194121 138.000000
65.213603 138.000000
65.233086 166.000000
65.252568 144.000000
65.272051 143.000000
65.291533 144.000000
65.311015 151.000000
65.330498 147.000000
65.349980 163.000000
65.369462 162.000000
65.388945 170.000000
65.408427 158.000000
65.427909 192.000000
65.447392 237.000000
65.466874 251.000000
65.486357 279.000000
65.505839 346.000000
65.525321 445.000000
65.544804 554.000000
65.564286 705.000000
65.583768 766.000000
65.603251 865.000000
65.622733 855.000000
65.642216 759.000000
65.661698 616.000000
65.681180 554.000000
65.700663 529.000000
65.720145 496.000000
65.739627 467.000000
65.759110 537.000000
65.778592 550.000000
65.798075 556.000000
65.817557 460.000000
65.837039 435.000000
65.856522 359.000000
65.876004 316.000000
65.895486 248.000000
65.914969 212.000000
65.934451 193.000000
65.953933 161.000000
65.973416 167.000000
65.992898 164.000000
66.012381 142.000000
66.031863 134.000000
66.051345 116.000000
66.070828 138.000000
66.090310 109.000000
66.109792 121.000000
66.129275 111.000000
66.148757 116.000000
66.168240 110.000000
66.187722 113.000000
66.207204 107.000000
66.226687 104.000000
66.246169 98.000000
66.265651 113.000000
66.285134 100.000000
66.304616 103.000000
66.324098 101.000000
66.343581 112.000000
66.363063 89.000000
66.382546 96.000000
66.402028 84.000000
66.421510 108.000000
66.440993 116.000000
66.460475 105.000000
66.479957 110.000000
66.499440 96.000000
66.518922 108.000000
66.538405 104.000000
66.557887 93.000000
66.577369 99.000000
66.596852 104.000000
66.616334 127.000000
66.635816 90.000000
66.655299 94.000000
66.674781 108.000000
66.694263 112.000000
66.713746 101.000000
66.733228 82.000000
66.752711 106.000000
66.772193 116.000000
66.791675 118.000000
66.811158 99.000000
66.830640 101.000000
66.850122 93.000000
66.869605 94.000000
66.889087 111.000000
66.908570 107.000000
66.928052 94.000000
66.947534 101.000000
66.967017 94.000000
66.986499 113.000000
67.005981 99.000000
67.025464 99.000000
67.044946 106.000000
67.064428 98.000000
67.083911 102.000000
67.103393 90.000000
67.122876 90.000000
67.142358 91.000000
67.161840 105.000000
67.181323 102.000000
67.200805 103.000000
67.220287 108.000000
67.239770 109.000000
67.259252 108.000000
67.278735 102.000000
67.298217 79.000000
67.317699 89.000000
67.337182 77.000000
67.356664 103.000000
67.376146 87.000000
67.395629 98.000000
67.415111 106.000000
67.434593 91.000000
67.454076 85.000000
67.473558 91.000000
67.493041 93.000000
67.512523 100.000000
67.532005 95.000000
67.551488 93.000000
67.570970 121.000000
67.590452 92.000000
67.609935 98.000000
67.629417 85.000000
67.648900 89.000000
67.668382 102.000000
67.687864 106.000000
67.707347 107.000000
67.726829 86.000000
67.746311 102.000000
67.765794 113.000000
67.785276 95.000000
67.804759 104.000000
67.824241 84.000000
67.843723 97.000000
67.863206 113.000000
67.882688 93.000000
67.902170 101.000000
67.921653 89.000000
67.941135 104.000000
67.960617 100.000000
67.980100 87.000000
67.999582 80.000000
68.019065 103.000000
68.038547 84.000000
68.058029 94.000000
68.077512 85.000000
68.096994 98.000000
68.116476 83.000000
68.135959 87.000000
68.155441 91.000000
68.174924 99.000000
68.194406 83.000000
68.213888 112.000000
68.233371 100.000000
68.252853 95.000000
68.272335 88.000000
68.291818 101.000000
68.311300 107.000000
68.330782 90.000000
68.350265 84.000000
68.369747 83.000000
68.389230 104.000000
68.408712 105.000000
68.428194 90.000000
68.447677 84.000000
68.467159 94.000000
68.486641 95.000000
68.506124 90.000000
68.525606 91.000000
68.545089 91.000000
68.564571 86.000000
68.584053 103.000000
68.603536 111.000000
68.623018 100.000000
68.642500 87.000000
68.661983 110.000000
68.681465 84.000000
68.700947 94.000000
68.720430 96.000000
68.739912 122.000000
68.759395 113.000000
68.778877 111.000000
68.798359 91.000000
68.817842 105.000000
68.837324 119.000000
68.856806 98.000000
68.876289 121.000000
68.895771 114.000000
68.915254 98.000000
68.934736 114.000000
68.954218 92.000000
68.973701 131.000000
68.993183 113.000000
69.012665 117.000000
69.032148 137.000000
69.051630 121.000000
69.071112 166.000000
69.090595 198.000000
69.110077 270.000000
69.129560 359.000000
69.149042 395.000000
69.168524 471.000000
69.188007 502.000000
69.207489 453.000000
69.226971 387.000000
69.246454 340.000000
69.265936 245.000000
69.285419 263.000000
69.304901 233.000000
69.324383 265.000000
69.343866 247.000000
69.363348 335.000000
69.382830 346.000000
69.402313 277.000000
69.421795 276.000000
69.441278 229.000000
69.460760 197.000000
69.480242 162.000000
69.499725 130.000000
69.519207 141.000000
69.538689 121.000000
69.558172 121.000000
69.577654 107.000000
69.597136 113.000000
69.616619 114.000000
69.636101 118.000000
69.655584 80.000000
69.675066 96.000000
69.694548 90.000000
69.714031 97.000000
69.733513 113.000000
69.752995 93.000000
69.772478 100.000000
69.791960 113.000000
69.811443 100.000000
69.830925 113.000000
69.850407 98.000000
69.869890 116.000000
69.889372 110.000000
69.908854 124.000000
69.928337 108.000000
69.947819 126.000000
69.967301 111.000000
69.986784 122.000000
70.006266 131.000000
70.025749 144.000000
